p (GeV)        dN/dp          error          
0.00293827     8.5084e-05     2.69059e-05    
0.00881482     0.000570063    6.96442e-05    
0.0146914      0.00148046     0.000112233    
0.0205679      0.0029354      0.000158035    
0.0264444      0.00487531     0.000203666    
0.032321       0.00710452     0.000245857    
0.0381975      0.0107206      0.000302009    
0.0440741      0.0137411      0.000341914    
0.0499506      0.0172465      0.000383048    
0.0558272      0.0215433      0.000428107    
0.0617037      0.0264952      0.000474759    
0.0675803      0.0316513      0.000518895    
0.0734568      0.0373434      0.000563873    
0.0793333      0.0421251      0.000598726    
0.0852099      0.0502591      0.000653945    
0.0910864      0.0563511      0.000692419    
0.096963       0.0653871      0.000745835    
0.10284        0.0725511      0.000786158    
0.108716       0.0811191      0.000831017    
0.114593       0.0888788      0.000869713    
0.120469       0.0989442      0.000917498    
0.126346       0.107146       0.000954727    
0.132222       0.115808       0.000992743    
0.138099       0.128579       0.00104597     
0.143975       0.138602       0.0010857      
0.149852       0.146974       0.00111811     
0.155728       0.161217       0.00117107     
0.161605       0.172635       0.001212       
0.167482       0.181552       0.00124319     
0.173358       0.19457        0.00128676     
0.179235       0.207367       0.00132846     
0.185111       0.221627       0.00137289     
0.190988       0.23604        0.00141694     
0.196864       0.248998       0.00145526     
0.202741       0.262867       0.00149509     
0.208617       0.276072       0.00153265     
0.214494       0.291557       0.00157546     
0.22037        0.30643        0.00161517     
0.226247       0.319635       0.0016491      
0.232123       0.335784       0.00169022     
0.238          0.34813        0.0017214      
0.243877       0.364406       0.00176125     
0.249753       0.384444       0.00180859     
0.25563        0.395462       0.00183397     
0.261506       0.41133        0.00187083     
0.267383       0.425156       0.00190182     
0.273259       0.441629       0.00193865     
0.279136       0.457582       0.00197269     
0.285012       0.474207       0.00200839     
0.290889       0.49239        0.00204682     
0.296765       0.50471        0.0020724      
0.302642       0.522952       0.0021095      
0.308519       0.538616       0.00214029     
0.314395       0.556058       0.00217593     
0.320272       0.568089       0.00219815     
0.326148       0.589581       0.00223983     
0.332025       0.607057       0.00227296     
0.337901       0.620645       0.00229798     
0.343778       0.63916        0.00233141     
0.349654       0.65353        0.00235799     
0.355531       0.66922        0.00238646     
0.361407       0.68           0.00240527     
0.367284       0.702249       0.00244423     
0.373161       0.712766       0.0024624      
0.379037       0.731084       0.00249382     
0.384914       0.75353        0.00253243     
0.39079        0.763476       0.002548       
0.396667       0.782526       0.00258008     
0.402543       0.797663       0.00260508     
0.40842        0.814407       0.00263233     
0.414296       0.830982       0.00265962     
0.420173       0.841005       0.00267531     
0.426049       0.850457       0.00268948     
0.431926       0.87263        0.00272549     
0.437803       0.884882       0.00274399     
0.443679       0.899176       0.00276619     
0.449556       0.915206       0.00279009     
0.455432       0.928701       0.00281106     
0.461309       0.938          0.00282559     
0.467185       0.954804       0.00285052     
0.473062       0.965653       0.0028657      
0.478938       0.976407       0.00288255     
0.484815       0.994428       0.00290785     
0.490691       1.00171        0.00291972     
0.496568       1.02387        0.0029514      
0.502445       1.03118        0.00296265     
0.508321       1.03773        0.00297151     
0.514198       1.05952        0.00300214     
0.520074       1.0705         0.00301792     
0.525951       1.07396        0.00302267     
0.531827       1.08447        0.00303769     
0.537704       1.10135        0.00306094     
0.54358        1.11236        0.00307713     
0.549457       1.12097        0.00308834     
0.555333       1.12613        0.00309499     
0.56121        1.13745        0.00311188     
0.567086       1.14719        0.00312455     
0.572963       1.16134        0.00314327     
0.57884        1.17092        0.00315626     
0.584716       1.17163        0.00315726     
0.590593       1.18418        0.00317446     
0.596469       1.19179        0.00318409     
0.602346       1.19312        0.00318598     
0.608222       1.20578        0.00320237     
0.614099       1.21087        0.00321075     
0.619975       1.2231         0.00322592     
0.625852       1.22248        0.00322518     
0.631728       1.23454        0.00324118     
0.637605       1.23497        0.00324099     
0.643482       1.24119        0.00325083     
0.649358       1.24739        0.00325827     
0.655235       1.24531        0.00325474     
0.661111       1.25428        0.00326752     
0.666988       1.26775        0.00328413     
0.672864       1.26151        0.0032758      
0.678741       1.26664        0.0032824      
0.684617       1.27277        0.00329051     
0.690494       1.2731         0.00329054     
0.69637        1.28084        0.00330057     
0.702247       1.27911        0.00329912     
0.708124       1.28041        0.00330104     
0.714          1.2863         0.0033092      
0.719877       1.28594        0.00330737     
0.725753       1.28385        0.0033054      
0.73163        1.29182        0.00331592     
0.737506       1.2912         0.00331398     
0.743383       1.28604        0.00330908     
0.749259       1.29517        0.003319       
0.755136       1.29312        0.00331673     
0.761012       1.29213        0.00331529     
0.766889       1.29295        0.00331626     
0.772766       1.2903         0.00331326     
0.778642       1.28325        0.00330463     
0.784519       1.29295        0.00331678     
0.790395       1.29156        0.00331485     
0.796272       1.29318        0.0033174      
0.802148       1.2882         0.0033111      
0.808025       1.28191        0.00330362     
0.813901       1.27549        0.00329263     
0.819778       1.27698        0.00329643     
0.825654       1.28099        0.00330182     
0.831531       1.2736         0.00329218     
0.837408       1.26842        0.00328498     
0.843284       1.26347        0.00327966     
0.849161       1.26451        0.00327993     
0.855037       1.26197        0.0032765      
0.860914       1.26067        0.00327522     
0.86679        1.25884        0.00327274     
0.872667       1.24652        0.00325624     
0.878543       1.246          0.0032563      
0.88442        1.24262        0.00325092     
0.890296       1.23529        0.0032415      
0.896173       1.23806        0.00324501     
0.90205        1.23196        0.00323745     
0.907926       1.23122        0.00323665     
0.913803       1.21992        0.00322056     
0.919679       1.2148         0.00321486     
0.925556       1.2185         0.00321977     
0.931432       1.20787        0.00320556     
0.937309       1.19749        0.00319263     
0.943185       1.18907        0.00318164     
0.949062       1.18561        0.00317699     
0.954938       1.17527        0.00316159     
0.960815       1.17609        0.00316428     
0.966691       1.16954        0.00315484     
0.972568       1.15932        0.00314067     
0.978445       1.16048        0.00314263     
0.984321       1.15283        0.00313203     
0.990198       1.14107        0.00311565     
0.996074       1.1348         0.0031071      
1.00195        1.13032        0.00310113     
1.00783        1.12159        0.00308957     
1.0137         1.11738        0.00308343     
1.01958        1.10956        0.00307297     
1.02546        1.10265        0.00306343     
1.03133        1.09838        0.00305773     
1.03721        1.08878        0.00304368     
1.04309        1.08213        0.00303488     
1.04896        1.07751        0.003027       
1.05484        1.06557        0.00301069     
1.06072        1.05828        0.00300117     
1.06659        1.0521         0.00299207     
1.07247        1.03751        0.00297122     
1.07835        1.03295        0.00296409     
1.08422        1.02608        0.00295482     
1.0901         1.02487        0.00295292     
1.09598        1.01177        0.00293434     
1.10185        1.00045        0.00291726     
1.10773        0.995066       0.00291004     
1.11361        0.991884       0.00290541     
1.11948        0.981546       0.00289009     
1.12536        0.971294       0.00287472     
1.13123        0.959118       0.00285642     
1.13711        0.957459       0.0028533      
1.14299        0.949538       0.00284274     
1.14886        0.943105       0.00283282     
1.15474        0.929985       0.00281311     
1.16062        0.928292       0.00281063     
1.16649        0.916738       0.00279307     
1.17237        0.906774       0.00277815     
1.17825        0.90469        0.00277402     
1.18412        0.89237        0.00275469     
1.19           0.888379       0.00274903     
1.19588        0.874187       0.00272657     
1.20175        0.87001        0.00272131     
1.20763        0.861493       0.00270759     
1.21351        0.851895       0.00269214     
1.21938        0.840528       0.00267381     
1.22526        0.839048       0.00267166     
1.23114        0.8323         0.00266095     
1.23701        0.822899       0.00264594     
1.24289        0.816705       0.00263595     
1.24877        0.811804       0.00262832     
1.25464        0.803227       0.00261362     
1.26052        0.789656       0.00259232     
1.2664         0.778493       0.00257391     
1.27227        0.776332       0.00256983     
1.27815        0.764157       0.00254961     
1.28402        0.758031       0.00253966     
1.2899         0.74965        0.00252493     
1.29578        0.740384       0.00250978     
1.30165        0.736258       0.00250235     
1.30753        0.725095       0.00248372     
1.31341        0.719819       0.00247466     
1.31928        0.717888       0.00247142     
1.32516        0.706257       0.00245196     
1.33104        0.698514       0.00243756     
1.33691        0.687377       0.00241836     
1.34279        0.68405        0.00241258     
1.34867        0.67167        0.00239052     
1.35454        0.670709       0.00238858     
1.36042        0.659401       0.00236882     
1.3663         0.656125       0.00236297     
1.37217        0.647762       0.00234761     
1.37805        0.639185       0.00233229     
1.38393        0.625963       0.00230757     
1.3898         0.622585       0.00230166     
1.39568        0.619088       0.00229492     
1.40156        0.60961        0.00227735     
1.40743        0.602565       0.00226489     
1.41331        0.598923       0.00225754     
1.41919        0.58651        0.00223325     
1.42506        0.582026       0.00222537     
1.43094        0.574181       0.00221036     
1.43682        0.568531       0.0021991      
1.44269        0.561963       0.00218697     
1.44857        0.556067       0.00217498     
1.45444        0.544972       0.00215321     
1.46032        0.537535       0.00213904     
1.4662         0.53711        0.00213759     
1.47207        0.527649       0.00211838     
1.47795        0.522943       0.00210911     
1.48383        0.51726        0.00209758     
1.4897         0.506897       0.00207704     
1.49558        0.502523       0.0020678      
1.50146        0.498201       0.00205883     
1.50733        0.488416       0.00203853     
1.51321        0.484315       0.00202982     
1.51909        0.478504       0.00201771     
1.52496        0.472072       0.00200436     
1.53084        0.465461       0.00199054     
1.53672        0.459062       0.00197682     
1.54259        0.454646       0.00196694     
1.54847        0.448384       0.00195249     
1.55435        0.442786       0.00194092     
1.56022        0.44225        0.00194019     
1.5661         0.430695       0.00191429     
1.57198        0.424152       0.00190027     
1.57785        0.422459       0.00189588     
1.58373        0.411279       0.00187017     
1.58961        0.409875       0.0018673      
1.59548        0.406063       0.00185918     
1.60136        0.398244       0.00184125     
1.60723        0.393463       0.00182951     
1.61311        0.38886        0.0018187      
1.61899        0.382036       0.00180298     
1.62486        0.376054       0.0017888      
1.63074        0.372098       0.00177932     
1.63662        0.369435       0.00177334     
1.64249        0.361633       0.00175378     
1.64837        0.358263       0.00174608     
1.65425        0.355013       0.00173826     
1.66012        0.348062       0.00172131     
1.666          0.345407       0.0017146      
1.67188        0.33592        0.00169065     
1.67775        0.333419       0.00168458     
1.68363        0.327327       0.00166906     
1.68951        0.327225       0.00166832     
1.69538        0.320231       0.00165037     
1.70126        0.317074       0.00164277     
1.70714        0.311382       0.00162749     
1.71301        0.308676       0.00162011     
1.71889        0.305324       0.00161208     
1.72477        0.299241       0.0015955      
1.73064        0.291736       0.00157548     
1.73652        0.291345       0.00157475     
1.7424         0.284946       0.00155697     
1.74827        0.281543       0.00154776     
1.75415        0.275017       0.00152992     
1.76002        0.275094       0.00152999     
1.7659         0.273571       0.00152548     
1.77178        0.267964       0.00150981     
1.77765        0.266466       0.00150575     
1.78353        0.259328       0.00148536     
1.78941        0.255405       0.00147392     
1.79528        0.253491       0.0014683      
1.80116        0.247731       0.00145181     
1.80704        0.246939       0.0014492      
1.81291        0.242268       0.00143607     
1.81879        0.240235       0.00142954     
1.82467        0.233241       0.00140894     
1.83054        0.231292       0.00140327     
1.83642        0.228893       0.00139558     
1.8423         0.222767       0.00137699     
1.84817        0.219576       0.00136664     
1.85405        0.216122       0.0013563      
1.85993        0.212557       0.0013451      
1.8658         0.208745       0.00133248     
1.87168        0.207962       0.00133009     
1.87756        0.205001       0.00132067     
1.88343        0.202185       0.00131159     
1.88931        0.199514       0.00130336     
1.89519        0.198271       0.00129864     
1.90106        0.193192       0.00128198     
1.90694        0.189882       0.00127115     
1.91282        0.185483       0.00125608     
1.91869        0.18419        0.00125159     
1.92457        0.182386       0.00124586     
1.93044        0.179672       0.00123646     
1.93632        0.17455        0.00121863     
1.9422         0.175511       0.00122239     
1.94807        0.171095       0.00120672     
1.95395        0.170466       0.00120462     
1.95983        0.165973       0.00118844     
1.9657         0.163149       0.00117787     
1.97158        0.161881       0.00117348     
1.97746        0.157805       0.00115851     
1.98333        0.156282       0.00115304     
1.98921        0.152088       0.0011373      
1.99509        0.149476       0.00112782     
2.00096        0.14808        0.00112249     
2.00684        0.146396       0.00111578     
2.01272        0.144473       0.00110869     
2.01859        0.140125       0.00109204     
2.02447        0.139019       0.00108753     
2.03035        0.138576       0.0010856      
2.03622        0.134909       0.0010713      
2.0421         0.133225       0.0010646      
2.04798        0.131787       0.00105898     
2.05385        0.13011        0.00105217     
2.05973        0.125541       0.00103391     
2.06561        0.126222       0.00103621     
2.07148        0.123125       0.00102343     
2.07736        0.120071       0.00101075     
2.08323        0.120096       0.00101093     
2.08911        0.117527       0.000999854    
2.09499        0.114659       0.000987595    
2.10086        0.112966       0.000980358    
2.10674        0.111052       0.000972101    
2.11262        0.110252       0.000968449    
2.11849        0.107291       0.000955295    
2.12437        0.106678       0.000952642    
2.13025        0.10621        0.000950705    
2.13612        0.102177       0.000932429    
2.142          0.100688       0.000925384    
2.14788        0.100995       0.000926946    
2.15375        0.0989017      0.000917301    
2.15963        0.0987825      0.000916828    
2.16551        0.0958982      0.00090336     
2.17138        0.0949282      0.000898867    
2.17726        0.0934988      0.00089184     
2.18314        0.091661       0.000883039    
2.18901        0.090606       0.00087803     
2.19489        0.087611       0.000863244    
2.20077        0.0868708      0.000859761    
2.20664        0.0856115      0.000853429    
2.21252        0.0838333      0.00084487     
2.2184         0.0827017      0.000838899    
2.22427        0.079979       0.000824814    
2.23015        0.0800896      0.000825559    
2.23602        0.0770181      0.000809323    
2.2419         0.0766182      0.000807669    
2.24778        0.0752313      0.000799975    
2.25365        0.0730872      0.000788684    
2.25953        0.0736232      0.000791476    
2.26541        0.0725852      0.00078579     
2.27128        0.0702794      0.000773123    
2.27716        0.0705857      0.000775178    
2.28304        0.0689606      0.000766026    
2.28891        0.0682459      0.000761955    
2.29479        0.0679906      0.00076053     
2.30067        0.0651744      0.000744622    
2.30654        0.0640087      0.000737839    
2.31242        0.0621794      0.000727323    
2.3183         0.061235       0.000721782    
2.32417        0.0599502      0.000714175    
2.33005        0.0601969      0.000715743    
2.33593        0.0590823      0.000709092    
2.3418         0.0580698      0.000703304    
2.34768        0.0570148      0.000696482    
2.35356        0.0556024      0.000687701    
2.35943        0.0543517      0.000679925    
2.36531        0.0550068      0.000684009    
2.37119        0.0539943      0.000677687    
2.37706        0.0525734      0.000668822    
2.38294        0.0525224      0.000668497    
2.38882        0.0503612      0.000654608    
2.39469        0.0499613      0.000652005    
2.40057        0.04706        0.000632688    
2.40644        0.0477151      0.000637076    
2.41232        0.0477917      0.0006377      
2.4182         0.0463453      0.000627982    
2.42407        0.0462602      0.000627406    
2.42995        0.0445925      0.000616       
2.43583        0.0442267      0.00061347     
2.4417         0.0432057      0.000606233    
2.44758        0.041487       0.000594055    
2.45346        0.0418784      0.00059685     
2.45933        0.0408063      0.000589163    
2.46521        0.0409594      0.000590267    
2.47109        0.0395556      0.000580191    
2.47696        0.0393088      0.000578379    
2.48284        0.0384665      0.000572027    
2.48872        0.0377688      0.000566816    
2.49459        0.0382112      0.000570253    
2.50047        0.0371477      0.000562266    
2.50635        0.0360841      0.000554164    
2.51222        0.0344335      0.000541216    
2.5181         0.0353524      0.000548389    
2.52398        0.0347483      0.000543684    
2.52985        0.0330211      0.000530002    
2.53573        0.0335571      0.000534421    
2.54161        0.0326212      0.000526784    
