pT (GeV)       dN/dpt         error          
0.00393956     0.00995034     0.000251434    
0.0118187      0.0294449      0.000432216    
0.0196978      0.0505386      0.000566486    
0.027577       0.0705789      0.000669176    
0.0354561      0.0911268      0.000760651    
0.0433352      0.108965       0.00083168     
0.0512143      0.131182       0.000912409    
0.0590935      0.151051       0.000979049    
0.0669726      0.170971       0.00104161     
0.0748517      0.189145       0.00109553     
0.0827309      0.209274       0.00115274     
0.09061        0.228414       0.00120377     
0.0984891      0.247096       0.00125212     
0.106368       0.268399       0.00130509     
0.114247       0.287405       0.00135034     
0.122127       0.303047       0.0013867      
0.130006       0.320968       0.00142726     
0.137885       0.341097       0.00147099     
0.145764       0.358847       0.00150888     
0.153643       0.373734       0.00153998     
0.161522       0.394688       0.00158246     
0.169401       0.413681       0.00162001     
0.17728        0.428194       0.00164871     
0.18516        0.444503       0.00167921     
0.193039       0.458642       0.00170588     
0.200918       0.473866       0.00173409     
0.208797       0.490124       0.00176403     
0.216676       0.5055         0.00179083     
0.224555       0.52153        0.0018192      
0.232434       0.533168       0.00183894     
0.240313       0.549242       0.00186671     
0.248193       0.561731       0.00188821     
0.256072       0.579658       0.00191798     
0.263951       0.58858        0.00193223     
0.27183        0.60171        0.00195438     
0.279709       0.617137       0.00197883     
0.287588       0.622975       0.00198816     
0.295467       0.638605       0.0020127      
0.303347       0.64905        0.00202937     
0.311226       0.660974       0.00204788     
0.319105       0.673615       0.00206761     
0.326984       0.678685       0.00207522     
0.334863       0.687709       0.00208911     
0.342742       0.697945       0.00210462     
0.350621       0.710116       0.00212233     
0.3585         0.716113       0.00213124     
0.36638        0.723633       0.00214314     
0.374259       0.728862       0.00215125     
0.382138       0.741992       0.0021701      
0.390017       0.743972       0.00217229     
0.397896       0.750102       0.00218251     
0.405775       0.755699       0.00219        
0.413654       0.759202       0.00219484     
0.421533       0.765383       0.00220398     
0.429413       0.779109       0.00222365     
0.437292       0.776888       0.00222041     
0.445171       0.782517       0.0022283      
0.45305        0.789383       0.00223817     
0.460929       0.792518       0.00224297     
0.468808       0.791826       0.00224156     
0.476687       0.798496       0.00225089     
0.484566       0.795672       0.0022473      
0.492446       0.795532       0.00224754     
0.500325       0.802335       0.00225616     
0.508204       0.801687       0.0022556      
0.516083       0.802925       0.00225739     
0.523962       0.806821       0.0022635      
0.531841       0.800038       0.00225279     
0.53972        0.804391       0.00225901     
0.5476         0.805305       0.00226039     
0.555479       0.801231       0.0022545      
0.563358       0.803014       0.00225719     
0.571237       0.799968       0.00225294     
0.579116       0.797671       0.00224958     
0.586995       0.800977       0.00225408     
0.594874       0.7951         0.00224611     
0.602753       0.791172       0.0022405      
0.610633       0.79484        0.00224526     
0.618512       0.790906       0.00223915     
0.626391       0.785835       0.00223335     
0.63427        0.78251        0.00222821     
0.642149       0.778297       0.00222252     
0.650028       0.77388        0.00221542     
0.657907       0.772585       0.00221369     
0.665786       0.770168       0.00221072     
0.673666       0.763923       0.00220194     
0.681545       0.759354       0.00219495     
0.689424       0.75271        0.00218596     
0.697303       0.750026       0.00218171     
0.705182       0.745742       0.00217585     
0.713061       0.74446        0.00217331     
0.72094        0.735786       0.00216033     
0.72882        0.732321       0.00215584     
0.736699       0.725251       0.00214508     
0.744578       0.721907       0.00214046     
0.752457       0.71195        0.00212606     
0.760336       0.709006       0.00212069     
0.768215       0.703352       0.00211254     
0.776094       0.69804        0.00210419     
0.783973       0.689251       0.00209187     
0.791853       0.681554       0.00207965     
0.799732       0.677759       0.0020743      
0.807611       0.67036        0.00206261     
0.81549        0.66897        0.00206049     
0.823369       0.659178       0.00204522     
0.831248       0.651861       0.00203407     
0.839127       0.646651       0.00202566     
0.847006       0.639125       0.00201359     
0.854886       0.630806       0.00200132     
0.862765       0.622727       0.00198783     
0.870644       0.616318       0.00197755     
0.878523       0.611216       0.0019693      
0.886402       0.609357       0.0019667      
0.894281       0.59596        0.00194445     
0.90216        0.590065       0.00193504     
0.91004        0.581175       0.00191987     
0.917919       0.577272       0.00191351     
0.925798       0.57064        0.00190269     
0.933677       0.560677       0.00188667     
0.941556       0.559846       0.0018849      
0.949435       0.547262       0.00186352     
0.957314       0.546545       0.00186252     
0.965193       0.534482       0.00184173     
0.973073       0.527933       0.00183082     
0.980952       0.524423       0.00182484     
0.988831       0.517887       0.00181302     
0.99671        0.509384       0.00179804     
1.00459        0.501178       0.00178331     
1.01247        0.490708       0.0017647      
1.02035        0.489242       0.00176199     
1.02823        0.481678       0.00174822     
1.03611        0.469639       0.00172628     
1.04398        0.470464       0.00172802     
1.05186        0.459061       0.00170722     
1.05974        0.45658        0.00170214     
1.06762        0.447765       0.00168546     
1.0755         0.444046       0.00167869     
1.08338        0.432859       0.00165741     
1.09126        0.42485        0.00164179     
1.09914        0.421258       0.00163483     
1.10702        0.412704       0.00161843     
1.1149         0.406358       0.00160607     
1.12278        0.399886       0.00159296     
1.13066        0.395723       0.00158485     
1.13853        0.389193       0.00157188     
1.14641        0.383481       0.00155976     
1.15429        0.378132       0.00154922     
1.16217        0.372503       0.00153772     
1.17005        0.364786       0.00152146     
1.17793        0.361391       0.00151438     
1.18581        0.348744       0.0014875      
1.19369        0.349753       0.00148991     
1.20157        0.340126       0.00146872     
1.20945        0.338311       0.00146517     
1.21733        0.331255       0.00144997     
1.2252         0.325042       0.00143621     
1.23308        0.321698       0.0014287      
1.24096        0.315523       0.00141534     
1.24884        0.30992        0.00140267     
1.25672        0.302832       0.00138627     
1.2646         0.299671       0.00137925     
1.27248        0.293871       0.00136556     
1.28036        0.289372       0.00135532     
1.28824        0.283623       0.00134149     
1.29612        0.27859        0.00132938     
1.304          0.271185       0.00131178     
1.31188        0.267993       0.00130423     
1.31975        0.26204        0.00128941     
1.32763        0.258157       0.00128002     
1.33551        0.252096       0.00126484     
1.34339        0.251392       0.00126317     
1.35127        0.243923       0.00124428     
1.35915        0.240407       0.00123515     
1.36703        0.237533       0.00122781     
1.37491        0.230216       0.00120862     
1.38279        0.226726       0.00119973     
1.39067        0.22163        0.00118585     
1.39855        0.219523       0.00118015     
1.40642        0.21385        0.00116516     
1.4143         0.210353       0.00115514     
1.42218        0.208805       0.00115093     
1.43006        0.204394       0.00113896     
1.43794        0.200492       0.00112786     
1.44582        0.196659       0.00111741     
1.4537         0.189824       0.00109749     
1.46158        0.189647       0.00109694     
1.46946        0.18358        0.00107946     
1.47734        0.180274       0.00106953     
1.48522        0.174125       0.0010513      
1.4931         0.173636       0.00104971     
1.50097        0.171085       0.00104192     
1.50885        0.168667       0.00103443     
1.51673        0.163381       0.00101845     
1.52461        0.160018       0.0010077      
1.53249        0.158101       0.0010015      
1.54037        0.155614       0.000993651    
1.54825        0.150816       0.000978413    
1.55613        0.147567       0.000967512    
1.56401        0.145092       0.000959212    
1.57189        0.14256        0.000951369    
1.57977        0.139806       0.000941903    
1.58764        0.136601       0.000930982    
1.59552        0.135465       0.000926981    
1.6034         0.131385       0.000913114    
1.61128        0.126835       0.000896882    
1.61916        0.125217       0.000891376    
1.62704        0.122088       0.000880237    
1.63492        0.120457       0.000874258    
1.6428         0.119093       0.000869487    
1.65068        0.114702       0.0008532      
1.65856        0.112614       0.000845462    
1.66644        0.111427       0.000840765    
1.67432        0.109194       0.000832356    
1.68219        0.104637       0.000814683    
1.69007        0.103266       0.000809535    
1.69795        0.102257       0.000805527    
1.70583        0.0990528      0.000792824    
1.71371        0.0971998      0.000785436    
1.72159        0.0970285      0.000785155    
1.72947        0.0926244      0.000766706    
1.73735        0.0915583      0.000762235    
1.74523        0.0895086      0.000753666    
1.75311        0.0876747      0.000746132    
1.76099        0.0864309      0.000740831    
1.76886        0.0839306      0.000729673    
1.77674        0.0824583      0.000723306    
1.78462        0.0801231      0.000713058    
1.7925         0.0786889      0.000706542    
1.80038        0.0779274      0.000703175    
1.80826        0.0764361      0.000696364    
1.81614        0.0734472      0.000682626    
1.82402        0.0722415      0.000677183    
1.8319         0.0711563      0.000672145    
1.83978        0.06983        0.000665681    
1.84766        0.0673615      0.000653883    
1.85554        0.0662573      0.000648571    
1.86341        0.0640489      0.000637497    
1.87129        0.0633699      0.000634366    
1.87917        0.0614852      0.000624555    
1.88705        0.0596766      0.000615307    
1.89493        0.059499       0.000614457    
1.90281        0.057849       0.000605752    
1.91069        0.0554566      0.000593168    
1.91857        0.0560849      0.000596583    
1.92645        0.0524868      0.000577077    
1.93433        0.0527533      0.000578817    
1.94221        0.052125       0.000575086    
1.95008        0.0505957      0.000566663    
1.95796        0.0493582      0.000559553    
1.96584        0.0475243      0.000549137    
1.97372        0.0473466      0.000548257    
1.9816         0.0464709      0.000543094    
1.98948        0.0453603      0.000536422    
1.99736        0.0441165      0.000529095    
2.00524        0.0433614      0.00052455     
2.01312        0.0412736      0.000511853    
2.021          0.0413561      0.000512206    
2.02888        0.0397189      0.000501968    
2.03676        0.0391033      0.000498065    
2.04463        0.0378532      0.000490123    
2.05251        0.0367553      0.000482884    
2.06039        0.036768       0.000482968    
2.06827        0.0358225      0.000477057    
2.07615        0.035264       0.00047299     
2.08403        0.0353402      0.000473585    
2.09191        0.0324147      0.000453484    
2.09979        0.0324084      0.000453528    
2.10767        0.0323132      0.000452773    
2.11555        0.0313931      0.000446462    
2.12343        0.0299145      0.00043574     
2.1313         0.0292735      0.000430956    
2.13918        0.0286516      0.00042645     
2.14706        0.0276426      0.000418782    
2.15494        0.0282582      0.000423418    
2.16282        0.0264052      0.000409402    
2.1707         0.0270906      0.00041458     
2.17858        0.0255802      0.00040286     
2.18646        0.0250091      0.000398338    
2.19434        0.0239367      0.000389706    
2.20222        0.0236321      0.000387323    
2.2101         0.022769       0.000380083    
2.21798        0.0236701      0.000387634    
2.22585        0.0225533      0.000378279    
2.23373        0.0220139      0.000373729    
2.24161        0.0216394      0.000370537    
2.24949        0.0209287      0.000364402    
2.25737        0.0205162      0.000360794    
2.26525        0.0196913      0.000353467    
2.27313        0.0184411      0.000342064    
2.28101        0.0191963      0.000348997    
2.28889        0.0189551      0.000346798    
2.29677        0.0183332      0.000341181    
2.30465        0.0177113      0.000335229    
2.31252        0.0171593      0.000329963    
2.3204         0.0164358      0.000323058    
2.32828        0.0160043      0.000318667    
2.33616        0.0164802      0.00032337     
2.34404        0.0154205      0.000312801    
2.35192        0.0152618      0.000311188    
2.3598         0.014843       0.000306889    
2.36768        0.0147478      0.000305904    
2.37556        0.0140815      0.000298914    
2.38344        0.0134977      0.000292653    
2.39132        0.0133708      0.000291274    
2.3992         0.0131804      0.000289193    
2.40707        0.0131106      0.000288426    
2.41495        0.0124823      0.000281431    
2.42283        0.0122539      0.000278844    
2.43071        0.0122158      0.000278555    
2.43859        0.0116637      0.000272047    
2.44647        0.0112259      0.000266893    
2.45435        0.0115939      0.000271381    
2.46223        0.0111561      0.000266062    
2.47011        0.0101724      0.000254063    
2.47799        0.0101598      0.000253904    
2.48587        0.0100392      0.000252393    
2.49374        0.0100582      0.000252792    
2.50162        0.00957593     0.000246502    
2.5095         0.0093094      0.000243047    
2.51738        0.00887788     0.000237348    
2.52526        0.00823695     0.00022862     
2.53314        0.00857328     0.000233241    
2.54102        0.00859867     0.000233586    
2.5489         0.00806561     0.00022623     
2.55678        0.00818618     0.000227915    
2.56466        0.00745641     0.000217519    
2.57254        0.00725968     0.000214631    
2.58042        0.00776736     0.000222008    
2.58829        0.00732314     0.000215567    
2.59617        0.00707565     0.000211893    
2.60405        0.00647914     0.000202765    
2.61193        0.0068472      0.000208445    
2.61981        0.00694874     0.000209984    
2.62769        0.00637126     0.00020107     
2.63557        0.00628877     0.000199764    
2.64345        0.0061555      0.000197636    
2.65133        0.00584455     0.00019258     
2.65921        0.00566052     0.000189524    
2.66709        0.00562879     0.000188992    
2.67496        0.005229       0.000182157    
2.68284        0.00536227     0.000184464    
2.69072        0.00510209     0.000179933    
2.6986         0.0053115      0.000183588    
2.70648        0.00478479     0.000174249    
2.71436        0.0048546      0.000175515    
2.72224        0.0047023      0.00017274     
2.73012        0.00444846     0.000168013    
2.738          0.00464518     0.000171688    
2.74588        0.00453096     0.000169564    
2.75376        0.0047721      0.000174017    
2.76164        0.00435962     0.000166327    
2.76951        0.00420097     0.000163273    
2.77739        0.00390906     0.000157498    
2.78527        0.00390272     0.00015737     
2.79315        0.0036108      0.000151371    
2.80103        0.00380753     0.000155439    
2.80891        0.0036235      0.000151636    
2.81679        0.00368061     0.000152827    
2.82467        0.00355369     0.000150169    
2.83255        0.0034712      0.000148416    
2.84043        0.00342677     0.000147463    
2.84831        0.0032364      0.000143308    
2.85618        0.00326178     0.000143869    
2.86406        0.00303333     0.00013874     
2.87194        0.00295718     0.000136987    
2.87982        0.00281122     0.000133564    
2.8877         0.00279219     0.000133111    
2.89558        0.00259546     0.000128336    
2.90346        0.00260816     0.00012865     
2.91134        0.00268431     0.000130514    
2.91922        0.00237336     0.000122722    
2.9271         0.00248124     0.00012548     
2.93498        0.00231625     0.000121237    
2.94286        0.00244316     0.000124514    
2.95073        0.0022274      0.000118889    
2.95861        0.00228452     0.000120403    
2.96649        0.00202434     0.00011334     
2.97437        0.00210049     0.000115452    
2.98225        0.00199895     0.000112627    
2.99013        0.00206241     0.000114401    
2.99801        0.00206876     0.000114577    
3.00589        0.00197991     0.00011209     
3.01377        0.00189107     0.000109546    
3.02165        0.00180223     0.000106942    
3.02953        0.00165627     0.00010252     
3.0374         0.00163724     0.000101929    
3.04528        0.0017705      0.000105996    
3.05316        0.00162454     0.000101533    
3.06104        0.00163089     0.000101732    
3.06892        0.00157378     9.99344e-05    
3.0768         0.00164358     0.000102127    
3.08468        0.00152936     9.85139e-05    
3.09256        0.00162454     0.000101533    
3.10044        0.00143417     9.53989e-05    
3.10832        0.00136436     9.30483e-05    
3.1162         0.00140878     9.45509e-05    
3.12408        0.00135802     9.28317e-05    
3.13195        0.00124379     8.88419e-05    
3.13983        0.00121841     8.79306e-05    
3.14771        0.00112322     8.4426e-05     
3.15559        0.00114226     8.51385e-05    
3.16347        0.0010788      8.27398e-05    
3.17135        0.00111053     8.39477e-05    
3.17923        0.000989957    7.92597e-05    
3.18711        0.00115495     8.56102e-05    
3.19499        0.00102803     8.07695e-05    
3.20287        0.00104707     8.15139e-05    
3.21075        0.000983611    7.90052e-05    
3.21862        0.000977265    7.875e-05      
3.2265         0.000837656    7.29084e-05    
3.23438        0.000907461    7.58854e-05    
3.24226        0.000818618    7.20751e-05    
3.25014        0.000920152    7.64142e-05    
3.25802        0.000812272    7.17952e-05    
3.2659         0.000812272    7.17952e-05    
3.27378        0.000691701    6.62527e-05    
3.28166        0.000824964    7.23539e-05    
3.28954        0.000717084    6.74574e-05    
3.29742        0.000875731    7.45469e-05    
3.3053         0.000685355    6.59481e-05    
3.31317        0.000698047    6.6556e-05     
3.32105        0.000672663    6.53346e-05    
3.32893        0.000653625    6.44035e-05    
3.33681        0.000653625    6.44035e-05    
3.34469        0.000786889    7.06645e-05    
3.35257        0.000640934    6.37751e-05    
3.36045        0.000621896    6.28208e-05    
3.36833        0.000583821    6.08674e-05    
3.37621        0.000571129    6.02022e-05    
3.38409        0.000526708    5.78136e-05    
3.39197        0.000533054    5.81608e-05    
3.39984        0.00061555     6.24995e-05    
3.40772        0.000640934    6.37751e-05    
