pT (GeV)       dN/dpt         error          
0.00393956     0.0101407      0.000253666    
0.0118187      0.0300668      0.000436755    
0.0196978      0.050602       0.000566699    
0.027577       0.0698491      0.000665771    
0.0354561      0.0904732      0.000757711    
0.0433352      0.109961       0.000835465    
0.0512143      0.130503       0.000910138    
0.0590935      0.150175       0.000976379    
0.0669726      0.169733       0.00103776     
0.0748517      0.190192       0.00109852     
0.0827309      0.210518       0.00115626     
0.09061        0.229791       0.00120738     
0.0984891      0.246886       0.00125195     
0.106368       0.268145       0.00130435     
0.114247       0.284581       0.00134348     
0.122127       0.305675       0.00139261     
0.130006       0.321958       0.00142917     
0.137885       0.339308       0.00146701     
0.145764       0.355966       0.00150314     
0.153643       0.377224       0.00154685     
0.161522       0.394206       0.00158178     
0.169401       0.411156       0.00161499     
0.17728        0.426405       0.00164502     
0.18516        0.445176       0.00168085     
0.193039       0.459937       0.00170827     
0.200918       0.475611       0.00173712     
0.208797       0.490403       0.00176459     
0.216676       0.508222       0.00179567     
0.224555       0.521555       0.00181933     
0.232434       0.533803       0.00184081     
0.240313       0.551971       0.0018713      
0.248193       0.563489       0.0018912      
0.256072       0.576453       0.00191261     
0.263951       0.590979       0.00193671     
0.27183        0.607097       0.00196272     
0.279709       0.615341       0.00197601     
0.287588       0.626808       0.00199459     
0.295467       0.63837        0.00201287     
0.303347       0.647584       0.00202746     
0.311226       0.664832       0.00205418     
0.319105       0.668887       0.00205995     
0.326984       0.678584       0.00207534     
0.334863       0.690025       0.00209251     
0.342742       0.697558       0.00210372     
0.350621       0.708606       0.00212021     
0.3585         0.716183       0.00213179     
0.36638        0.725378       0.00214537     
0.374259       0.730169       0.00215254     
0.382138       0.739396       0.00216583     
0.390017       0.746015       0.00217539     
0.397896       0.748369       0.00217906     
0.405775       0.756391       0.00219088     
0.413654       0.759735       0.00219599     
0.421533       0.767248       0.00220667     
0.429413       0.776799       0.00221954     
0.437292       0.775447       0.00221821     
0.445171       0.781641       0.00222743     
0.45305        0.789307       0.00223801     
0.460929       0.78602        0.00223332     
0.468808       0.786806       0.0022348      
0.476687       0.795741       0.00224743     
0.484566       0.799974       0.00225347     
0.492446       0.803471       0.00225854     
0.500325       0.801726       0.00225549     
0.508204       0.800888       0.00225445     
0.516083       0.803007       0.00225743     
0.523962       0.80691        0.00226277     
0.531841       0.804416       0.0022585      
0.53972        0.803953       0.00225873     
0.5476         0.801656       0.00225582     
0.555479       0.803395       0.00225772     
0.563358       0.800107       0.00225342     
0.571237       0.803915       0.00225801     
0.579116       0.798806       0.00225102     
0.586995       0.801668       0.00225547     
0.594874       0.794441       0.00224548     
0.602753       0.791807       0.00224149     
0.610633       0.790506       0.00224032     
0.618512       0.787397       0.00223552     
0.626391       0.787892       0.00223594     
0.63427        0.781146       0.00222667     
0.642149       0.777884       0.00222142     
0.650028       0.779731       0.00222415     
0.657907       0.775168       0.00221749     
0.665786       0.768403       0.0022082      
0.673666       0.75884        0.00219464     
0.681545       0.760738       0.00219725     
0.689424       0.755934       0.00218964     
0.697303       0.752272       0.00218533     
0.705182       0.747437       0.00217838     
0.713061       0.741141       0.00216898     
0.72094        0.735709       0.002161       
0.72882        0.72911        0.00215172     
0.736699       0.723982       0.00214376     
0.744578       0.720118       0.00213763     
0.752457       0.711544       0.00212492     
0.760336       0.709571       0.00212181     
0.768215       0.701765       0.00211075     
0.776094       0.695914       0.00210142     
0.783973       0.693782       0.00209808     
0.791853       0.683902       0.00208284     
0.799732       0.674535       0.00206913     
0.807611       0.674294       0.00206868     
0.81549        0.667168       0.00205755     
0.823369       0.661418       0.00204836     
0.831248       0.65011        0.00203107     
0.839127       0.646093       0.00202457     
0.847006       0.63929        0.00201421     
0.854886       0.634518       0.00200599     
0.862765       0.626985       0.00199525     
0.870644       0.619345       0.00198237     
0.878523       0.612764       0.00197187     
0.886402       0.60223        0.00195481     
0.894281       0.60138        0.00195383     
0.90216        0.58931        0.00193369     
0.91004        0.585426       0.00192747     
0.917919       0.581022       0.00192013     
0.925798       0.574556       0.00190919     
0.933677       0.567391       0.00189768     
0.941556       0.556508       0.00187942     
0.949435       0.551165       0.00187065     
0.957314       0.544806       0.0018595      
0.965193       0.534139       0.00184106     
0.973073       0.526124       0.00182718     
0.980952       0.521498       0.00181917     
0.988831       0.5142         0.00180605     
0.99671        0.510247       0.00179926     
1.00459        0.500208       0.0017815      
1.01247        0.495473       0.00177282     
1.02035        0.485923       0.00175569     
1.02823        0.480218       0.00174575     
1.03611        0.469163       0.00172494     
1.04398        0.4654         0.00171841     
1.05186        0.460597       0.00170965     
1.05974        0.453223       0.00169582     
1.06762        0.447898       0.00168583     
1.0755         0.439788       0.00167087     
1.08338        0.435492       0.00166236     
1.09126        0.42294        0.00163844     
1.09914        0.420046       0.00163272     
1.10702        0.412831       0.00161885     
1.1149         0.406282       0.00160605     
1.12278        0.401599       0.00159647     
1.13066        0.395964       0.001585       
1.13853        0.388685       0.00157025     
1.14641        0.385239       0.00156365     
1.15429        0.376558       0.00154645     
1.16217        0.37223        0.00153724     
1.17005        0.364019       0.00151987     
1.17793        0.359951       0.00151129     
1.18581        0.350642       0.0014917      
1.19369        0.348167       0.00148605     
1.20157        0.344905       0.00147911     
1.20945        0.335361       0.00145866     
1.21733        0.330627       0.0014486      
1.2252         0.323335       0.00143232     
1.23308        0.318925       0.00142265     
1.24096        0.31355        0.00141056     
1.24884        0.309317       0.00140102     
1.25672        0.303371       0.00138732     
1.2646         0.298294       0.00137548     
1.27248        0.292164       0.00136205     
1.28036        0.286529       0.00134817     
1.28824        0.282315       0.00133832     
1.29612        0.277182       0.00132648     
1.304          0.275462       0.00132183     
1.31188        0.268786       0.00130621     
1.31975        0.2631         0.00129201     
1.32763        0.256716       0.00127636     
1.33551        0.253626       0.00126888     
1.34339        0.249666       0.0012584      
1.35127        0.245782       0.00124899     
1.35915        0.240477       0.00123501     
1.36703        0.236524       0.00122521     
1.37491        0.231853       0.00121283     
1.38279        0.226148       0.0011978      
1.39067        0.222956       0.00118938     
1.39855        0.220151       0.00118217     
1.40642        0.215417       0.0011691      
1.4143         0.209681       0.00115326     
1.42218        0.205454       0.00114207     
1.43006        0.201843       0.0011321      
1.43794        0.199806       0.00112572     
1.44582        0.194057       0.00111021     
1.4537         0.190637       0.00110016     
1.46158        0.187762       0.00109131     
1.46946        0.181086       0.00107205     
1.47734        0.180578       0.00107051     
1.48522        0.176879       0.00105937     
1.4931         0.172754       0.00104713     
1.50097        0.169568       0.00103749     
1.50885        0.16597        0.00102626     
1.51673        0.164352       0.00102146     
1.52461        0.159884       0.00100712     
1.53249        0.156451       0.000996275    
1.54037        0.153399       0.00098653     
1.54825        0.152561       0.000983716    
1.55613        0.148627       0.000971346    
1.56401        0.144077       0.00095615     
1.57189        0.142243       0.000949974    
1.57977        0.139666       0.000941305    
1.58764        0.137496       0.00093402     
1.59552        0.133911       0.000921743    
1.6034         0.131036       0.000911814    
1.61128        0.128244       0.000902244    
1.61916        0.125807       0.00089338     
1.62704        0.12396        0.000886901    
1.63492        0.120654       0.000875016    
1.6428         0.118433       0.000866755    
1.65068        0.114835       0.000853647    
1.65856        0.113077       0.000847053    
1.66644        0.110609       0.000837579    
1.67432        0.106649       0.000822615    
1.68219        0.106312       0.000821564    
1.69007        0.104548       0.000814536    
1.69795        0.103241       0.000809287    
1.70583        0.100379       0.000798005    
1.71371        0.0979359      0.000788246    
1.72159        0.0963749      0.000781947    
1.72947        0.094782       0.000775622    
1.73735        0.0909999      0.000759857    
1.74523        0.0885567      0.0007496      
1.75311        0.0880237      0.000747451    
1.76099        0.0881252      0.000747882    
1.76886        0.0829533      0.000725694    
1.77674        0.0818936      0.000721051    
1.78462        0.0801865      0.000713284    
1.7925         0.0788285      0.000707396    
1.80038        0.0769184      0.000698844    
1.80826        0.0757063      0.000693209    
1.81614        0.0738153      0.000684392    
1.82402        0.0727555      0.000679526    
1.8319         0.0693668      0.000663471    
1.83978        0.0696651      0.000665137    
1.84766        0.0679072      0.000656339    
1.85554        0.0667015      0.000650429    
1.86341        0.0645312      0.000639828    
1.87129        0.0625577      0.000630103    
1.87917        0.0624752      0.000629751    
1.88705        0.0613393      0.000623943    
1.89493        0.059023       0.000611997    
1.90281        0.0578173      0.000605652    
1.91069        0.0579379      0.000606283    
1.91857        0.0551457      0.000591571    
1.92645        0.0542636      0.000586757    
1.93433        0.0531213      0.000580483    
1.94221        0.0508749      0.000568152    
1.95008        0.0503545      0.000565312    
1.95796        0.0491298      0.000558329    
1.96584        0.0494979      0.000560415    
1.97372        0.0470039      0.000546198    
1.9816         0.0464518      0.000543132    
1.98948        0.0449732      0.000534204    
1.99736        0.0451827      0.00053537     
2.00524        0.0435264      0.0005257      
2.01312        0.041629       0.000513971    
2.021          0.0414957      0.000513148    
2.02888        0.0406263      0.000507668    
2.03676        0.039281       0.000499517    
2.04463        0.0391985      0.00049867     
2.05251        0.0367046      0.000482551    
2.06039        0.0364951      0.00048134     
2.06827        0.0358034      0.000476677    
2.07615        0.0349848      0.000471199    
2.08403        0.0341281      0.000465398    
2.09191        0.0332841      0.000459611    
2.09979        0.0322434      0.000452373    
2.10767        0.0317738      0.000448979    
2.11555        0.03152        0.000447273    
2.12343        0.0305808      0.000440472    
2.1313         0.0297622      0.000434723    
2.13918        0.028677       0.000426544    
2.14706        0.0280297      0.000421799    
2.15494        0.0270461      0.000414337    
2.16282        0.0262212      0.000407974    
2.1707         0.0266717      0.000411657    
2.17858        0.0253518      0.000401058    
2.18646        0.0248124      0.000396972    
2.19434        0.0241397      0.000391355    
2.20222        0.0247807      0.000396617    
2.2101         0.0235242      0.000386438    
2.21798        0.023264       0.000384297    
2.22585        0.0221408      0.000374804    
2.23373        0.021906       0.000372812    
2.24161        0.0213983      0.000368577    
2.24949        0.021246       0.000367154    
2.25737        0.0204845      0.000360627    
2.26525        0.0201862      0.000357881    
2.27313        0.0191899      0.000348939    
2.28101        0.0183523      0.00034124     
2.28889        0.0191011      0.000348131    
2.29677        0.0180794      0.000338813    
2.30465        0.0180667      0.000338575    
2.31252        0.0174575      0.000332818    
2.3204         0.0164993      0.000323557    
2.32828        0.0165818      0.000324364    
2.33616        0.0163977      0.00032256     
2.34404        0.0150651      0.000309176    
2.35192        0.0152936      0.000311512    
2.3598         0.0150968      0.000309502    
2.36768        0.0143036      0.000301396    
2.37556        0.0140561      0.000298645    
2.38344        0.013999       0.000298037    
2.39132        0.0137388      0.000295255    
2.3992         0.0129392      0.000286535    
2.40707        0.0131677      0.000289193    
2.41495        0.0123491      0.000279925    
2.42283        0.0121841      0.000278049    
2.43071        0.0120254      0.000276233    
2.43859        0.011283       0.000267571    
2.44647        0.0114226      0.000269221    
2.45435        0.0106738      0.000260247    
2.46223        0.0107943      0.000261713    
2.47011        0.0103501      0.000256272    
2.47799        0.0103565      0.00025635     
2.48587        0.0102042      0.000254459    
2.49374        0.00994399     0.000251194    
2.50162        0.00964573     0.000247398    
2.5095         0.00977265     0.000249021    
2.51738        0.00899211     0.00023887     
2.52526        0.0092396      0.000242134    
2.53314        0.00853521     0.000232722    
2.54102        0.0090873      0.000240131    
2.5489         0.00805292     0.000226052    
2.55678        0.00811003     0.000226852    
2.56466        0.00784351     0.000223094    
2.57254        0.00806561     0.00022623     
2.58042        0.00727238     0.000214818    
2.58829        0.0073866      0.000216499    
2.59617        0.00721526     0.000214161    
2.60405        0.00689797     0.000209216    
2.61193        0.00682817     0.000208155    
2.61981        0.00663779     0.000205233    
2.62769        0.00663144     0.000205134    
2.63557        0.00661241     0.00020484     
2.64345        0.006238       0.000198956    
2.65133        0.00642837     0.000201969    
2.65921        0.00567956     0.000189843    
2.66709        0.00578744     0.000191637    
2.67496        0.00569225     0.000190055    
2.68284        0.00534958     0.000184245    
2.69072        0.00527977     0.000183039    
2.6986         0.00529246     0.000183259    
2.70648        0.00526708     0.000182819    
2.71436        0.00474037     0.000173438    
2.72224        0.00476575     0.000173902    
2.73012        0.00465153     0.000171805    
2.738          0.00475941     0.000173786    
2.74588        0.00447384     0.000168492    
2.75376        0.00430885     0.000165356    
2.76164        0.00437231     0.000166569    
2.76951        0.00404867     0.000160286    
2.77739        0.00387733     0.000156858    
2.78527        0.00404232     0.00016016     
2.79315        0.00379484     0.00015518     
2.80103        0.00379484     0.00015518     
2.80891        0.00343312     0.000147599    
2.81679        0.00357908     0.000150704    
2.82467        0.00342043     0.000147326    
2.83255        0.00322371     0.000143027    
2.84043        0.0030841      0.000139896    
2.84831        0.00302698     0.000138594    
2.85618        0.00318563     0.00014218     
2.86406        0.00321736     0.000142886    
2.87194        0.00306506     0.000139463    
2.87982        0.00293814     0.000136545    
2.8877         0.00288103     0.000135212    
2.89558        0.00277315     0.000132656    
2.90346        0.00283026     0.000134015    
2.91134        0.00262085     0.000128962    
2.91922        0.00270969     0.00013113     
2.9271         0.00249393     0.000125801    
2.93498        0.00258277     0.000128022    
2.94286        0.00256373     0.000127549    
2.95073        0.00225279     0.000119564    
2.95861        0.00235432     0.000122229    
2.96649        0.00218933     0.000117868    
2.97437        0.00206241     0.000114401    
2.98225        0.00221471     0.00011855     
2.99013        0.0020751      0.000114752    
2.99801        0.00212587     0.000116148    
3.00589        0.00173242     0.00010485     
3.01377        0.00199261     0.000112448    
3.02165        0.00175146     0.000105425    
3.02953        0.00163724     0.000101929    
3.0374         0.00176415     0.000105806    
3.04528        0.00182761     0.000107692    
3.05316        0.00181492     0.000107318    
3.06104        0.00147859     9.68651e-05    
3.06892        0.00159282     0.000100537    
3.0768         0.00150397     9.7693e-05     
3.08468        0.00145955     9.62395e-05    
3.09256        0.00133898     9.21787e-05    
3.10044        0.00144686     9.58201e-05    
3.10832        0.00135802     9.28317e-05    
3.1162         0.00128187     9.01914e-05    
3.12408        0.00110418     8.37075e-05    
3.13195        0.00149128     9.72799e-05    
3.13983        0.00123745     8.86149e-05    
3.14771        0.00113591     8.49017e-05    
3.15559        0.0011486      8.53747e-05    
3.16347        0.00111687     8.41872e-05    
3.17135        0.00111687     8.41872e-05    
3.17923        0.00111053     8.39477e-05    
3.18711        0.00120572     8.74715e-05    
3.19499        0.000945536    7.7461e-05     
3.20287        0.00093919     7.72007e-05    
3.21075        0.00111687     8.41872e-05    
3.21862        0.000780543    7.0379e-05     
3.2265         0.000856694    7.37322e-05    
3.23438        0.000812272    7.17952e-05    
3.24226        0.000926498    7.66773e-05    
3.25014        0.000932844    7.69394e-05    
3.25802        0.000786889    7.06645e-05    
3.2659         0.000698047    6.6556e-05     
3.27378        0.00075516     6.92252e-05    
3.28166        0.000729776    6.80518e-05    
3.28954        0.000729776    6.80518e-05    
3.29742        0.000590167    6.11973e-05    
3.3053         0.00083131     7.26317e-05    
3.31317        0.000602858    6.18518e-05    
3.32105        0.000799581    7.12321e-05    
3.32893        0.000685355    6.59481e-05    
3.33681        0.000640934    6.37751e-05    
3.34469        0.000691701    6.62527e-05    
3.35257        0.000583821    6.08674e-05    
3.36045        0.000571129    6.02022e-05    
3.36833        0.000621896    6.28208e-05    
3.37621        0.000450557    5.34712e-05    
3.38409        0.000545746    5.88491e-05    
3.39197        0.000494979    5.60452e-05    
3.39984        0.00050767     5.67591e-05    
3.40772        0.00043152     5.23294e-05    
