p (GeV)        dN/dp          error          
0.00293956     5.95326e-05    2.25012e-05    
0.00881869     0.000348691    5.44563e-05    
0.0146978      0.000944017    8.96019e-05    
0.020577       0.00167542     0.000119368    
0.0264561      0.00284056     0.000155427    
0.0323352      0.00406523     0.000185937    
0.0382143      0.00545999     0.000215485    
0.0440935      0.00752662     0.000252999    
0.0499726      0.0100015      0.000291641    
0.0558517      0.01183        0.00031718     
0.0617309      0.0146535      0.000353005    
0.06761        0.0178768      0.000389898    
0.0734891      0.0216273      0.000428847    
0.0793683      0.0247316      0.000458588    
0.0852474      0.028261       0.000490214    
0.0911265      0.0326494      0.000527033    
0.0970056      0.0359407      0.00055281     
0.102885       0.0406183      0.000587675    
0.108764       0.0463079      0.000627591    
0.114643       0.0516573      0.000662936    
0.120522       0.0559692      0.000689918    
0.126401       0.0613271      0.000722165    
0.13228        0.0663959      0.00075159     
0.13816        0.0735058      0.00079058     
0.144039       0.0801479      0.000825502    
0.149918       0.084026       0.00084531     
0.155797       0.0905746      0.000877767    
0.161676       0.0983989      0.000914767    
0.167555       0.105194       0.000945791    
0.173434       0.112891       0.000979742    
0.179313       0.120868       0.00101401     
0.185193       0.124525       0.00102907     
0.191072       0.133617       0.00106592     
0.196951       0.142155       0.00109947     
0.20283        0.149257       0.00112694     
0.208709       0.158833       0.00116239     
0.214588       0.164114       0.00118176     
0.220467       0.17068        0.00120475     
0.226347       0.180418       0.00123857     
0.232226       0.192545       0.0012795      
0.238105       0.198907       0.00130042     
0.243984       0.205762       0.00132271     
0.249863       0.216469       0.00135688     
0.255742       0.224761       0.00138224     
0.261621       0.233487       0.00140917     
0.2675         0.241371       0.00143269     
0.27338        0.252129       0.00146458     
0.279259       0.26259        0.00149417     
0.285138       0.269649       0.0015143      
0.291017       0.279216       0.00154061     
0.296896       0.286913       0.0015622      
0.302775       0.298735       0.00159394     
0.308654       0.308098       0.00161838     
0.314533       0.316935       0.00164201     
0.320413       0.326205       0.00166601     
0.326292       0.330993       0.00167737     
0.332171       0.34392        0.00171033     
0.33805        0.352654       0.00173182     
0.343929       0.361006       0.00175216     
0.349808       0.373023       0.00178133     
0.355687       0.380354       0.00179863     
0.361566       0.389148       0.00181953     
0.367446       0.399549       0.00184337     
0.373325       0.407637       0.00186215     
0.379204       0.414398       0.00187715     
0.385083       0.425854       0.00190264     
0.390962       0.434078       0.00192111     
0.396841       0.441256       0.00193681     
0.40272        0.455884       0.00196872     
0.4086         0.462636       0.00198357     
0.414479       0.471498       0.00200209     
0.420358       0.479765       0.0020203      
0.426237       0.485488       0.0020321      
0.432116       0.493627       0.00204868     
0.437995       0.497922       0.00205791     
0.443874       0.508834       0.00208045     
0.449753       0.517389       0.00209782     
0.455633       0.52461        0.00211212     
0.461512       0.533446       0.0021304      
0.467391       0.544894       0.00215265     
0.47327        0.549639       0.00216194     
0.479149       0.558569       0.00217952     
0.485028       0.56749        0.00219622     
0.490907       0.572959       0.0022073      
0.496786       0.579329       0.00221959     
0.502666       0.587179       0.00223428     
0.508545       0.596746       0.00225322     
0.514424       0.601824       0.00226211     
0.520303       0.604409       0.0022674      
0.526182       0.611477       0.00228034     
0.532061       0.618927       0.00229532     
0.53794        0.625033       0.00230592     
0.54382        0.628248       0.00231186     
0.549699       0.63654        0.00232711     
0.555578       0.642791       0.00233783     
0.561457       0.650215       0.00235162     
0.567336       0.653166       0.00235639     
0.573215       0.657878       0.00236518     
0.579094       0.660855       0.00237039     
0.584973       0.670439       0.00238703     
0.590853       0.668398       0.00238408     
0.596732       0.679293       0.0024041      
0.602611       0.678808       0.0024031      
0.60849        0.688282       0.00241952     
0.614369       0.68431        0.00241265     
0.620248       0.692585       0.00242752     
0.626127       0.696685       0.00243448     
0.632006       0.702187       0.00244411     
0.637886       0.700733       0.00244136     
0.643765       0.707145       0.0024528      
0.649644       0.709986       0.00245659     
0.655523       0.714774       0.00246559     
0.661402       0.717538       0.00247004     
0.667281       0.724597       0.00248221     
0.67316        0.723415       0.00248046     
0.67904        0.723075       0.00247983     
0.684919       0.726323       0.00248535     
0.690798       0.724725       0.00248289     
0.696677       0.727633       0.00248742     
0.702556       0.730236       0.00249261     
0.708435       0.735806       0.00250155     
0.714314       0.732183       0.00249561     
0.720193       0.736036       0.00250156     
0.726073       0.735491       0.00250073     
0.731952       0.732328       0.002496       
0.737831       0.732353       0.00249555     
0.74371        0.73766        0.0025054      
0.749589       0.736521       0.00250304     
0.755468       0.734692       0.00249933     
0.761347       0.740152       0.0025082      
0.767226       0.73982        0.00250813     
0.773106       0.737005       0.00250395     
0.778985       0.737124       0.00250395     
0.784864       0.736869       0.00250401     
0.790743       0.733212       0.00249689     
0.796622       0.736691       0.00250345     
0.802501       0.734369       0.00249936     
0.80838        0.735049       0.00250013     
0.81426        0.736214       0.00250221     
0.820139       0.732149       0.00249532     
0.826018       0.732005       0.00249491     
0.831897       0.728543       0.00248989     
0.837776       0.727829       0.0024883      
0.843655       0.726434       0.00248504     
0.849534       0.724138       0.0024814      
0.855413       0.722666       0.00247893     
0.861293       0.721961       0.00247787     
0.867172       0.716186       0.00246768     
0.873051       0.716535       0.00246865     
0.87893        0.710182       0.00245787     
0.884809       0.709995       0.00245675     
0.890688       0.706414       0.00245077     
0.896567       0.708175       0.00245386     
0.902446       0.708285       0.00245402     
0.908326       0.70371        0.00244706     
0.914205       0.696923       0.00243483     
0.920084       0.697561       0.00243517     
0.925963       0.696863       0.0024347      
0.931842       0.6933         0.00242822     
0.937721       0.686777       0.00241716     
0.9436         0.685909       0.00241484     
0.949479       0.682116       0.0024086      
0.955359       0.679267       0.00240357     
0.961238       0.67857        0.00240259     
0.967117       0.669997       0.00238706     
0.972996       0.670193       0.00238756     
0.978875       0.661271       0.0023722      
0.984754       0.661399       0.00237106     
0.990633       0.656925       0.00236323     
0.996513       0.657716       0.00236511     
1.00239        0.650402       0.00235187     
1.00827        0.646048       0.0023437      
1.01415        0.643786       0.00233969     
1.02003        0.638887       0.00233124     
1.02591        0.634754       0.00232337     
1.03179        0.6321         0.00231792     
1.03767        0.627295       0.00230993     
1.04355        0.622643       0.00230148     
1.04942        0.619088       0.00229457     
1.0553         0.614241       0.00228545     
1.06118        0.607879       0.00227367     
1.06706        0.604826       0.00226738     
1.07294        0.600965       0.00226095     
1.07882        0.600948       0.0022613      
1.0847         0.591286       0.00224229     
1.09058        0.589118       0.00223823     
1.09646        0.58069        0.00222234     
1.10234        0.579405       0.00222042     
1.10822        0.57409        0.00220999     
1.1141         0.575272       0.00221215     
1.11997        0.565875       0.00219334     
1.12585        0.557804       0.0021784      
1.13173        0.555958       0.00217446     
1.13761        0.551808       0.00216664     
1.14349        0.54867        0.00215988     
1.14937        0.543065       0.00214892     
1.15525        0.537979       0.00213914     
1.16113        0.532094       0.00212809     
1.16701        0.529551       0.00212212     
1.17289        0.528029       0.00211898     
1.17877        0.517219       0.0020971      
1.18464        0.518206       0.00209937     
1.19052        0.510288       0.00208291     
1.1964         0.508655       0.00207949     
1.20228        0.501214       0.0020648      
1.20816        0.497276       0.00205641     
1.21404        0.493738       0.00204901     
1.21992        0.488397       0.00203761     
1.2258         0.484425       0.00202953     
1.23168        0.481644       0.00202373     
1.23756        0.472876       0.00200511     
1.24344        0.473471       0.00200683     
1.24932        0.468828       0.00199648     
1.25519        0.461965       0.00198254     
1.26107        0.462934       0.00198421     
1.26695        0.45562        0.00196823     
1.27283        0.448884       0.00195399     
1.27871        0.443501       0.00194223     
1.28459        0.44214        0.00193923     
1.29047        0.434699       0.0019227      
1.29635        0.431586       0.00191557     
1.30223        0.426203       0.00190395     
1.30811        0.420402       0.0018909      
1.31399        0.420802       0.00189164     
1.31986        0.413667       0.00187561     
1.32574        0.405341       0.00185638     
1.33162        0.403402       0.00185204     
1.3375         0.399472       0.00184331     
1.34338        0.397083       0.00183773     
1.34926        0.39471        0.0018323      
1.35514        0.386928       0.00181412     
1.36102        0.386197       0.00181185     
1.3669         0.379674       0.00179683     
1.37278        0.37645        0.00178893     
1.37866        0.370378       0.00177463     
1.38454        0.367172       0.001767       
1.39041        0.360623       0.00175103     
1.39629        0.356873       0.00174215     
1.40217        0.355163       0.00173828     
1.40805        0.351642       0.00172947     
1.41393        0.346863       0.00171731     
1.41981        0.341896       0.00170518     
1.42569        0.339591       0.00169992     
1.43157        0.336045       0.00169063     
1.43745        0.329522       0.00167403     
1.44333        0.326434       0.00166625     
1.44921        0.323687       0.00165908     
1.45508        0.321051       0.00165259     
1.46096        0.316229       0.00163988     
1.46684        0.314281       0.00163439     
1.47272        0.306942       0.0016157      
1.4786         0.306117       0.00161345     
1.48448        0.302426       0.00160391     
1.49036        0.295954       0.00158649     
1.49624        0.295503       0.00158533     
1.50212        0.289337       0.00156858     
1.508          0.286667       0.00156139     
1.51388        0.281411       0.00154678     
1.51976        0.278825       0.00153982     
1.52563        0.274879       0.00152953     
1.53151        0.273399       0.00152481     
1.53739        0.267837       0.0015096      
1.54327        0.264776       0.0015006      
1.54915        0.262598       0.00149482     
1.55503        0.259018       0.00148419     
1.56091        0.256875       0.00147796     
1.56679        0.253583       0.00146815     
1.57267        0.249909       0.00145804     
1.57855        0.247222       0.00145016     
1.58443        0.247128       0.00144948     
1.5903         0.242017       0.00143466     
1.59618        0.236974       0.00141942     
1.60206        0.235043       0.00141384     
1.60794        0.231097       0.00140185     
1.61382        0.227406       0.00139054     
1.6197         0.223519       0.001379       
1.62558        0.224999       0.00138339     
1.63146        0.220738       0.00137026     
1.63734        0.216401       0.00135688     
1.64322        0.211919       0.00134225     
1.6491         0.212685       0.00134472     
1.65498        0.209563       0.0013349      
1.66085        0.205524       0.00132211     
1.66673        0.202845       0.00131337     
1.67261        0.200897       0.00130723     
1.67849        0.197665       0.00129687     
1.68437        0.192962       0.00128105     
1.69025        0.193064       0.00128122     
1.69613        0.188625       0.00126649     
1.70201        0.186499       0.00125941     
1.70789        0.184968       0.00125424     
1.71377        0.18109        0.00124082     
1.71965        0.180222       0.00123767     
1.72552        0.176795       0.00122634     
1.7314         0.175562       0.00122206     
1.73728        0.173538       0.00121471     
1.74316        0.168647       0.00119727     
1.74904        0.16613        0.00118873     
1.75492        0.163817       0.00118063     
1.7608         0.164097       0.00118139     
1.76668        0.163162       0.00117791     
1.77256        0.159216       0.00116366     
1.77844        0.156341       0.00115307     
1.78432        0.153764       0.00114367     
1.7902         0.152318       0.00113816     
1.79607        0.148236       0.0011229      
1.80195        0.14662        0.00111645     
1.80783        0.145872       0.0011138      
1.81371        0.144656       0.00110909     
1.81959        0.142164       0.00109964     
1.82547        0.139332       0.00108845     
1.83135        0.138498       0.00108513     
1.83723        0.13587        0.00107507     
1.84311        0.133523       0.00106562     
1.84899        0.131167       0.00105653     
1.85487        0.129262       0.00104844     
1.86074        0.128667       0.00104602     
1.86662        0.126719       0.00103788     
1.8725         0.122629       0.00102115     
1.87838        0.122203       0.00101945     
1.88426        0.12069        0.00101305     
1.89014        0.117492       0.000999486    
1.89602        0.116208       0.000994088    
1.9019         0.115077       0.000989317    
1.90778        0.11244        0.000977565    
1.91366        0.113537       0.000982466    
1.91954        0.111386       0.000973196    
1.92542        0.10869        0.000961509    
1.93129        0.107575       0.000956651    
1.93717        0.104862       0.000944684    
1.94305        0.10323        0.000937005    
1.94893        0.100227       0.000923297    
1.95481        0.100678       0.000925368    
1.96069        0.0988497      0.000916937    
1.96657        0.0965874      0.000906397    
1.97245        0.0954223      0.00090076     
1.97833        0.0948185      0.000897908    
1.98421        0.0936873      0.000892784    
1.99009        0.0925902      0.000887467    
1.99596        0.0900388      0.000875088    
2.00184        0.0902344      0.000875789    
2.00772        0.0894265      0.000872193    
2.0136         0.0859821      0.000855338    
2.01948        0.0843832      0.000847189    
2.02536        0.0849105      0.000849829    
2.03124        0.083099       0.000840725    
2.03712        0.0806327      0.000827906    
2.043          0.0802074      0.000825984    
2.04888        0.0777666      0.000813155    
2.05476        0.0759211      0.000803635    
2.06064        0.0735313      0.000790625    
2.06651        0.0775795      0.000812088    
2.07239        0.0718048      0.000781478    
2.07827        0.0734037      0.000789939    
2.08415        0.0734292      0.00079026     
2.09003        0.0720515      0.000782817    
2.09591        0.0690323      0.00076635     
2.10179        0.0696447      0.000769549    
2.10767        0.0675525      0.00075791     
2.11355        0.0667786      0.000753559    
2.11943        0.0667106      0.000753175    
2.12531        0.0639125      0.000737123    
2.13118        0.0646439      0.000741424    
2.13706        0.06205        0.000726506    
2.14294        0.0622201      0.0007275      
2.14882        0.0608253      0.000719207    
2.1547         0.0597622      0.000713       
2.16058        0.0593285      0.000710512    
2.16646        0.057415       0.000699077    
2.17234        0.0572364      0.000697576    
2.17822        0.0551697      0.00068487     
2.1841         0.0545744      0.000681273    
2.18998        0.0540641      0.000677976    
2.19586        0.0531201      0.000672032    
2.20173        0.0527969      0.000669985    
2.20761        0.0516403      0.000662827    
2.21349        0.0506112      0.000656085    
2.21937        0.0496587      0.000649775    
2.22525        0.0485361      0.000642503    
2.23113        0.0478982      0.000638156    
2.23701        0.0471158      0.000632924    
2.24289        0.0472264      0.00063378     
2.24877        0.0464354      0.000628454    
2.25465        0.0452278      0.00062035     
2.26053        0.0445899      0.000615729    
2.2664         0.0443263      0.000613907    
2.27228        0.0440882      0.000612729    
2.27816        0.0425148      0.000601235    
2.28404        0.0408564      0.000589395    
2.28992        0.0405417      0.000587121    
2.2958         0.0406863      0.00058829     
2.30168        0.0397933      0.000581802    
2.30756        0.0395637      0.000579998    
2.31344        0.0383645      0.000571396    
2.31932        0.0391725      0.000577249    
2.3252         0.0364425      0.000556785    
2.33108        0.0372164      0.000562533    
2.33695        0.0351327      0.000546562    
2.34283        0.0349542      0.000545437    
2.34871        0.0359407      0.000552941    
2.35459        0.0337465      0.000535673    
2.36047        0.0342908      0.000539975    
2.36635        0.0330321      0.000529974    
2.37223        0.0318329      0.000520267    
2.37811        0.0323007      0.000524075    
2.38399        0.03003        0.000505321    
2.38987        0.0311015      0.000514256    
2.39575        0.03003        0.000505607    
2.40162        0.0302596      0.000507249    
2.4075         0.0306933      0.000510871    
2.41338        0.0288223      0.000495204    
2.41926        0.0286692      0.000493742    
2.42514        0.0277082      0.000485397    
2.43102        0.0278443      0.000486587    
2.4369         0.0268152      0.000477512    
2.44278        0.0261688      0.000471723    
2.44866        0.0268492      0.000477815    
2.45454        0.025514       0.000465784    
2.46042        0.0248846      0.000460005    
2.4663         0.0249867      0.000460947    
2.47217        0.0244764      0.000456217    
2.47805        0.0241107      0.000452796    
2.48393        0.0238726      0.000450555    
2.48981        0.0236174      0.000448141    
2.49569        0.0223843      0.000436286    
2.50157        0.0229881      0.000442131    
2.50745        0.0218995      0.000431537    
2.51333        0.0221546      0.000434043    
2.51921        0.0217209      0.000429942    
2.52509        0.0215253      0.000427834    
2.53097        0.0209895      0.000422477    
2.53684        0.0208534      0.000421105    
2.54272        0.0200965      0.000413393    
