pT (GeV)       dN/dpt         error          
0.00393956     0.0353275      0.000473415    
0.0118187      0.102213       0.000805252    
0.0196978      0.170844       0.00104099     
0.027577       0.237475       0.00122753     
0.0354561      0.305903       0.00139374     
0.0433352      0.374749       0.00154229     
0.0512143      0.439535       0.00167037     
0.0590935      0.508578       0.00179661     
0.0669726      0.574816       0.00191021     
0.0748517      0.638002       0.0020121      
0.0827309      0.70768        0.00211945     
0.09061        0.773639       0.00221526     
0.0984891      0.840169       0.00230894     
0.106368       0.894966       0.00238298     
0.114247       0.959237       0.00246693     
0.122127       1.02945        0.00255567     
0.130006       1.08892        0.00262915     
0.137885       1.14646        0.00269693     
0.145764       1.20833        0.00276965     
0.153643       1.26935        0.0028386      
0.161522       1.33322        0.00290882     
0.169401       1.38352        0.00296276     
0.17728        1.44414        0.00302778     
0.18516        1.49933        0.00308449     
0.193039       1.55563        0.00314255     
0.200918       1.60182        0.00318866     
0.208797       1.65107        0.00323672     
0.216676       1.70608        0.00329032     
0.224555       1.75808        0.00333954     
0.232434       1.81036        0.00338951     
0.240313       1.853          0.00342819     
0.248193       1.9033         0.0034751      
0.256072       1.9487         0.00351643     
0.263951       1.99254        0.00355515     
0.27183        2.03568        0.00359425     
0.279709       2.07502        0.00362945     
0.287588       2.11798        0.00366507     
0.295467       2.16138        0.00370357     
0.303347       2.18865        0.0037273      
0.311226       2.2266         0.00375876     
0.319105       2.26248        0.0037878      
0.326984       2.29727        0.00381781     
0.334863       2.33085        0.00384601     
0.342742       2.36131        0.00387213     
0.350621       2.39035        0.00389358     
0.3585         2.41928        0.00391776     
0.36638        2.44507        0.00393907     
0.374259       2.46763        0.00395745     
0.382138       2.49396        0.00397832     
0.390017       2.51967        0.00399829     
0.397896       2.53994        0.00401415     
0.405775       2.55473        0.00402532     
0.413654       2.57822        0.00404357     
0.421533       2.6046         0.00406705     
0.429413       2.6124         0.00407223     
0.437292       2.63273        0.00408743     
0.445171       2.63783        0.00409108     
0.45305        2.65704        0.0041067      
0.460929       2.66848        0.00411531     
0.468808       2.67875        0.00412262     
0.476687       2.68752        0.00413002     
0.484566       2.69682        0.00413739     
0.492446       2.70104        0.00414044     
0.500325       2.70576        0.00414466     
0.508204       2.70686        0.00414406     
0.516083       2.71226        0.00414946     
0.523962       2.70748        0.00414591     
0.531841       2.7196         0.0041529      
0.53972        2.71885        0.00415288     
0.5476         2.71826        0.00415366     
0.555479       2.71453        0.00415087     
0.563358       2.70812        0.00414498     
0.571237       2.70739        0.00414524     
0.579116       2.70515        0.00414298     
0.586995       2.69555        0.00413541     
0.594874       2.69692        0.00413774     
0.602753       2.68025        0.00412497     
0.610633       2.66815        0.00411493     
0.618512       2.66442        0.00411156     
0.626391       2.65543        0.004105       
0.63427        2.64404        0.00409599     
0.642149       2.62536        0.00408171     
0.650028       2.62383        0.00408009     
0.657907       2.60974        0.00407027     
0.665786       2.58872        0.00405355     
0.673666       2.57401        0.0040417      
0.681545       2.55881        0.00403009     
0.689424       2.54677        0.00401992     
0.697303       2.53385        0.00401005     
0.705182       2.51376        0.0039944      
0.713061       2.50263        0.00398496     
0.72094        2.48663        0.00397328     
0.72882        2.4632         0.00395398     
0.736699       2.44953        0.00394309     
0.744578       2.42639        0.00392356     
0.752457       2.40859        0.00390915     
0.760336       2.39297        0.00389816     
0.768215       2.37382        0.00388119     
0.776094       2.35251        0.00386406     
0.783973       2.32991        0.00384574     
0.791853       2.30374        0.00382411     
0.799732       2.28478        0.00380865     
0.807611       2.27012        0.00379603     
0.81549        2.24885        0.00377884     
0.823369       2.23166        0.00376317     
0.831248       2.19694        0.00373388     
0.839127       2.17384        0.00371501     
0.847006       2.15779        0.00369981     
0.854886       2.12896        0.00367622     
0.862765       2.10797        0.00365819     
0.870644       2.0913         0.00364349     
0.878523       2.06793        0.0036218      
0.886402       2.03866        0.00359691     
0.894281       2.01694        0.00357648     
0.90216        1.98993        0.00355374     
0.91004        1.97437        0.00353978     
0.917919       1.95147        0.00351903     
0.925798       1.92337        0.00349285     
0.933677       1.89978        0.0034722      
0.941556       1.87999        0.0034543      
0.949435       1.8526         0.00342818     
0.957314       1.82807        0.00340582     
0.965193       1.80616        0.00338569     
0.973073       1.78541        0.00336567     
0.980952       1.767          0.0033487      
0.988831       1.73935        0.00332259     
0.99671        1.72012        0.00330382     
1.00459        1.69036        0.00327511     
1.01247        1.66926        0.0032537      
1.02035        1.6482         0.00323367     
1.02823        1.62173        0.00320803     
1.03611        1.59645        0.00318331     
1.04398        1.56895        0.00315539     
1.05186        1.55317        0.00313905     
1.05974        1.52896        0.00311479     
1.06762        1.51626        0.00310242     
1.0755         1.48492        0.00306972     
1.08338        1.46494        0.00304856     
1.09126        1.44624        0.0030295      
1.09914        1.4182         0.00300081     
1.10702        1.39859        0.00297911     
1.1149         1.38231        0.00296081     
1.12278        1.36151        0.00293927     
1.13066        1.33801        0.00291433     
1.13853        1.31822        0.00289267     
1.14641        1.29111        0.00286259     
1.15429        1.27468        0.00284353     
1.16217        1.25462        0.00282189     
1.17005        1.23436        0.00279863     
1.17793        1.21367        0.00277576     
1.18581        1.19226        0.00275139     
1.19369        1.17375        0.0027298      
1.20157        1.15389        0.00270607     
1.20945        1.12924        0.00267703     
1.21733        1.11788        0.00266372     
1.2252         1.09251        0.00263283     
1.23308        1.0803         0.00261741     
1.24096        1.06065        0.00259424     
1.24884        1.03772        0.00256599     
1.25672        1.02198        0.00254593     
1.2646         1.00598        0.00252632     
1.27248        0.988739       0.0025051      
1.28036        0.970202       0.00248178     
1.28824        0.957225       0.00246459     
1.29612        0.94327        0.0024467      
1.304          0.919486       0.00241503     
1.31188        0.905563       0.00239694     
1.31975        0.889908       0.00237662     
1.32763        0.871581       0.00235228     
1.33551        0.856776       0.00233179     
1.34339        0.841844       0.00231107     
1.35127        0.825066       0.00228812     
1.35915        0.811302       0.00226911     
1.36703        0.795691       0.00224652     
1.37491        0.780461       0.00222565     
1.38279        0.76709        0.00220654     
1.39067        0.752399       0.00218494     
1.39855        0.742131       0.00216989     
1.40642        0.725918       0.00214665     
1.4143         0.709127       0.00212102     
1.42218        0.694226       0.00209923     
1.43006        0.683864       0.00208286     
1.43794        0.672206       0.00206479     
1.44582        0.657719       0.00204351     
1.4537         0.645515       0.00202381     
1.46158        0.633712       0.00200501     
1.46946        0.620646       0.00198429     
1.47734        0.607783       0.00196392     
1.48522        0.594558       0.00194249     
1.4931         0.585115       0.0019269      
1.50097        0.573693       0.00190809     
1.50885        0.560417       0.00188615     
1.51673        0.549877       0.00186795     
1.52461        0.538848       0.00184983     
1.53249        0.533225       0.00183971     
1.54037        0.521822       0.00181982     
1.54825        0.50986        0.00179868     
1.55613        0.498304       0.00177813     
1.56401        0.488766       0.00176105     
1.57189        0.481779       0.00174888     
1.57977        0.466733       0.00172097     
1.58764        0.459378       0.00170738     
1.59552        0.451922       0.0016934      
1.6034         0.440709       0.00167253     
1.61128        0.432586       0.00165684     
1.61916        0.424355       0.00164094     
1.62704        0.415541       0.00162382     
1.63492        0.406638       0.00160634     
1.6428         0.399422       0.00159199     
1.65068        0.391249       0.00157595     
1.65856        0.383621       0.00156061     
1.66644        0.374261       0.00154134     
1.67432        0.366601       0.00152493     
1.68219        0.358079       0.00150722     
1.69007        0.352564       0.00149577     
1.69795        0.343058       0.00147571     
1.70583        0.337836       0.00146395     
1.71371        0.327911       0.00144259     
1.72159        0.323062       0.00143186     
1.72947        0.313436       0.00141039     
1.73735        0.306303       0.00139444     
1.74523        0.303327       0.00138766     
1.75311        0.29384        0.00136581     
1.76099        0.289112       0.00135444     
1.76886        0.281903       0.00133771     
1.77674        0.278387       0.00132914     
1.78462        0.271927       0.00131345     
1.7925         0.265029       0.00129678     
1.80038        0.260257       0.00128482     
1.80826        0.254032       0.00126986     
1.81614        0.248993       0.00125729     
1.82402        0.243974       0.00124421     
1.8319         0.235477       0.00122211     
1.83978        0.232646       0.00121516     
1.84766        0.229607       0.00120706     
1.85554        0.223096       0.00118982     
1.86341        0.216763       0.00117294     
1.87129        0.213018       0.00116325     
1.87917        0.208297       0.00114953     
1.88705        0.204001       0.00113769     
1.89493        0.199178       0.00112463     
1.90281        0.196119       0.00111571     
1.91069        0.190173       0.00109868     
1.91857        0.188682       0.0010942      
1.92645        0.182774       0.00107717     
1.93433        0.175616       0.00105563     
1.94221        0.173858       0.00105053     
1.95008        0.170057       0.00103879     
1.95796        0.165336       0.00102419     
1.96584        0.162258       0.00101463     
1.97372        0.159764       0.00100714     
1.9816         0.154008       0.000988686    
1.98948        0.152187       0.000982879    
1.99736        0.148227       0.000969918    
2.00524        0.14388        0.000955751    
2.01312        0.143385       0.00095373     
2.021          0.137249       0.000933181    
2.02888        0.134133       0.000922723    
2.03676        0.132223       0.000916102    
2.04463        0.130706       0.000910756    
2.05251        0.126473       0.000895874    
2.06039        0.123624       0.000885609    
2.06827        0.120394       0.000874212    
2.07615        0.11724        0.000862571    
2.08403        0.11566        0.00085675     
2.09191        0.113382       0.000848476    
2.09979        0.111338       0.00084067     
2.10767        0.108692       0.0008303      
2.11555        0.105227       0.00081732     
2.12343        0.101889       0.000803828    
2.1313         0.100055       0.00079677     
2.13918        0.0981707      0.000789546    
2.14706        0.0967239      0.000783617    
2.15494        0.0931004      0.000768775    
2.16282        0.091736       0.000763237    
2.1707         0.0889756      0.000751315    
2.17858        0.0871797      0.000743648    
2.18646        0.0864816      0.000740722    
2.19434        0.0815318      0.000719124    
2.20222        0.0809226      0.000716434    
2.2101         0.0792537      0.000709184    
2.21798        0.0772738      0.000700051    
2.22585        0.0758015      0.000693761    
2.23373        0.071994       0.000676203    
2.24161        0.0713784      0.000673012    
2.24949        0.06983        0.000665681    
2.25737        0.0684593      0.000659305    
2.26525        0.0665746      0.000649872    
2.27313        0.0663588      0.000648943    
2.28101        0.0641505      0.000638128    
2.28889        0.0630971      0.000632747    
2.29677        0.061352       0.000623878    
2.30465        0.0598289      0.000616222    
2.31252        0.0581473      0.000607709    
2.3204         0.0571383      0.000602222    
2.32828        0.0557232      0.00059459     
2.33616        0.0542192      0.000586654    
2.34404        0.0527977      0.000578782    
2.35192        0.0520299      0.000574491    
2.3598         0.049428       0.000560164    
2.36768        0.0487554      0.000556271    
2.37556        0.0478035      0.000550746    
2.38344        0.0466612      0.000544057    
2.39132        0.0458807      0.000539638    
2.3992         0.0449098      0.000533903    
2.40707        0.0441102      0.000529209    
2.41495        0.0419463      0.000516003    
2.42283        0.0410832      0.000510593    
2.43071        0.0402646      0.000505404    
2.43859        0.0388431      0.000496486    
2.44647        0.0373772      0.000486951    
2.45435        0.0377453      0.000489671    
2.46223        0.0360763      0.000478489    
2.47011        0.0361842      0.000479203    
2.47799        0.0351054      0.00047201     
2.48587        0.0339124      0.000463925    
2.49374        0.032732       0.000455697    
2.50162        0.0320023      0.000450769    
2.5095         0.0309552      0.00044325     
2.51738        0.0303904      0.000439099    
2.52526        0.0303016      0.000438548    
2.53314        0.029356       0.000431563    
2.54102        0.0286897      0.000426733    
2.5489         0.0278013      0.000420078    
2.55678        0.0274777      0.000417627    
2.56466        0.0266083      0.000410972    
2.57254        0.0259737      0.000406144    
2.58042        0.0252629      0.000400354    
2.58829        0.0242095      0.00039192     
2.59617        0.0241397      0.000391355    
2.60405        0.0233211      0.000384663    
2.61193        0.0229911      0.000381932    
2.61981        0.0230292      0.000382249    
2.62769        0.0218044      0.000372163    
2.63557        0.0213348      0.000367921    
2.64345        0.0210937      0.000365836    
2.65133        0.0200339      0.000356642    
2.65921        0.019539       0.000352098    
2.66709        0.0191201      0.000348304    
2.67496        0.018879       0.000346101    
2.68284        0.0187203      0.000344644    
2.69072        0.0178954      0.000336966    
2.6986         0.0172798      0.00033112     
2.70648        0.017521       0.000333423    
2.71436        0.0173242      0.000331546    
2.72224        0.0168673      0.000327145    
2.73012        0.0156743      0.00031562     
2.738          0.0147161      0.000305574    
2.74588        0.0148049      0.000306495    
2.75376        0.0142211      0.000300392    
2.76164        0.0147224      0.00030564     
2.76951        0.0137388      0.000295255    
2.77739        0.0132946      0.000290582    
2.78527        0.013136       0.000288705    
2.79315        0.0127616      0.000284561    
2.80103        0.0124189      0.000280715    
2.80891        0.0120508      0.000276524    
2.81679        0.0118731      0.000274478    
2.82467        0.0117399      0.000272934    
2.83255        0.0115051      0.000270191    
2.84043        0.0108197      0.000262021    
2.84831        0.0101788      0.000254142    
2.85618        0.0103628      0.000256429    
2.86406        0.0103311      0.000256036    
2.87194        0.010439       0.000257369    
2.87982        0.00969016     0.00024813     
2.8877         0.00983611     0.000249828    
2.89558        0.00955055     0.000246175    
2.90346        0.00881442     0.000236498    
2.91134        0.00909999     0.000240298    
2.91922        0.00817984     0.000228003    
2.9271         0.00857328     0.000233241    
2.93498        0.00803388     0.000225785    
2.94286        0.00788793     0.000223725    
2.95073        0.00764678     0.000220279    
2.95861        0.00722796     0.000214161    
2.96649        0.00774832     0.000221736    
2.97437        0.0069995      0.00021075     
2.98225        0.00687893     0.000208927    
2.99013        0.00692335     0.0002096      
2.99801        0.0065426      0.000203756    
3.00589        0.00680913     0.000207864    
3.01377        0.00626973     0.000199462    
3.02165        0.00652991     0.000203558    
3.02953        0.00604128     0.000195794    
3.0374         0.00580648     0.000191952    
3.04528        0.00553995     0.000187495    
3.05316        0.00566052     0.000189524    
3.06104        0.00527977     0.000183039    
3.06892        0.00503863     0.000178811    
3.0768         0.00498151     0.000177794    
3.08468        0.00463884     0.00017157     
3.09256        0.00484825     0.0001754      
3.10044        0.00460076     0.000170865    
3.10832        0.00476575     0.000173902    
3.1162         0.00454365     0.000169801    
3.12408        0.00448654     0.000168731    
3.13195        0.00422001     0.000163642    
3.13983        0.00425808     0.000164379    
3.14771        0.00394079     0.000158136    
3.15559        0.00411213     0.000161537    
3.16347        0.00378849     0.00015505     
3.17135        0.00387099     0.000156729    
3.17923        0.00388368     0.000156986    
3.18711        0.00357273     0.00015057     
3.19499        0.00380753     0.000155439    
3.20287        0.00336966     0.000146229    
3.21075        0.00341408     0.00014719     
3.21862        0.00349658     0.000148957    
3.2265         0.00332524     0.000145262    
3.23438        0.00312852     0.0001409      
3.24226        0.00299525     0.000137866    
3.25014        0.00293814     0.000136545    
3.25802        0.00266527     0.00013005     
3.2659         0.00296353     0.000137134    
3.27378        0.0028493      0.000134465    
3.28166        0.00275411     0.0001322      
3.28954        0.00260816     0.00012865     
3.29742        0.00251931     0.000126439    
3.3053         0.00246855     0.000125159    
3.31317        0.00251931     0.000126439    
3.32105        0.00227817     0.000120236    
3.32893        0.00212587     0.000116148    
3.33681        0.00210049     0.000115452    
3.34469        0.00227817     0.000120236    
3.35257        0.00186569     0.000108808    
3.36045        0.00210683     0.000115626    
3.36833        0.00212587     0.000116148    
3.37621        0.0019228      0.000110461    
3.38409        0.00180858     0.00010713     
3.39197        0.00192915     0.000110643    
3.39984        0.0019228      0.000110461    
3.40772        0.00171973     0.000104466    
