pT (GeV)       dN/dpt         error          
0.00393827     0.020834       0.000363637    
0.0118148      0.0644001      0.00063922     
0.0196914      0.106798       0.000823374    
0.0275679      0.148504       0.000970774    
0.0354444      0.192051       0.00110418     
0.043321       0.232297       0.00121465     
0.0511975      0.276213       0.00132421     
0.0590741      0.316693       0.00141781     
0.0669506      0.359212       0.00151003     
0.0748272      0.400702       0.00159474     
0.0827037      0.44225        0.0016753      
0.0905803      0.482928       0.00175062     
0.0984568      0.519466       0.00181617     
0.106333       0.565413       0.00189456     
0.11421        0.603215       0.00195655     
0.122086       0.643969       0.00202217     
0.129963       0.679092       0.00207595     
0.13784        0.714095       0.00212911     
0.145716       0.755452       0.00219014     
0.153593       0.787204       0.00223548     
0.161469       0.830364       0.00229597     
0.169346       0.864205       0.00234253     
0.177222       0.896732       0.00238593     
0.185099       0.935226       0.00243644     
0.192975       0.971143       0.00248299     
0.200852       0.997881       0.00251685     
0.208728       1.03609        0.00256466     
0.216605       1.0617         0.00259567     
0.224482       1.09506        0.00263635     
0.232358       1.12405        0.002671       
0.240235       1.15653        0.00271027     
0.248111       1.18487        0.0027423      
0.255988       1.21561        0.00277816     
0.263864       1.24776        0.0028139      
0.271741       1.27371        0.00284396     
0.279617       1.29378        0.00286619     
0.287494       1.31676        0.00289029     
0.29537        1.34242        0.00291872     
0.303247       1.37238        0.00295154     
0.311123       1.39134        0.00297241     
0.319          1.40845        0.00299005     
0.326877       1.43572        0.00301974     
0.334753       1.45342        0.00303697     
0.34263        1.47413        0.00305938     
0.350506       1.49113        0.00307619     
0.358383       1.50776        0.00309384     
0.366259       1.52595        0.00311257     
0.374136       1.54478        0.00313218     
0.382012       1.55311        0.00313968     
0.389889       1.56923        0.00315643     
0.397765       1.58778        0.00317427     
0.405642       1.60086        0.00318761     
0.413519       1.60911        0.0031963      
0.421395       1.62128        0.00320865     
0.429272       1.63593        0.00322309     
0.437148       1.64351        0.00322941     
0.445025       1.65059        0.00323756     
0.452901       1.65302        0.00323947     
0.460778       1.66645        0.00325241     
0.468654       1.67467        0.00326041     
0.476531       1.67328        0.00325889     
0.484407       1.68123        0.00326664     
0.492284       1.68452        0.00327004     
0.500161       1.69134        0.00327581     
0.508037       1.69232        0.00327724     
0.515914       1.68941        0.00327479     
0.52379        1.69159        0.00327678     
0.531667       1.69478        0.00327994     
0.539543       1.691          0.00327743     
0.54742        1.69499        0.00327956     
0.555296       1.69504        0.00328032     
0.563173       1.69486        0.00327991     
0.571049       1.69172        0.00327726     
0.578926       1.69094        0.00327607     
0.586803       1.68307        0.00326964     
0.594679       1.68413        0.00326988     
0.602556       1.67181        0.00325793     
0.610432       1.66661        0.00325216     
0.618309       1.65926        0.00324666     
0.626185       1.65665        0.0032431      
0.634062       1.65124        0.00323878     
0.641938       1.64184        0.0032284      
0.649815       1.6355         0.00322138     
0.657691       1.63179        0.00321827     
0.665568       1.62281        0.00320971     
0.673445       1.61479        0.00320214     
0.681321       1.60594        0.00319329     
0.689198       1.5986         0.0031854      
0.697074       1.59119        0.00317741     
0.704951       1.58353        0.00317042     
0.712827       1.56592        0.00315337     
0.720704       1.55087        0.00313816     
0.72858        1.54508        0.00313238     
0.736457       1.53025        0.00311652     
0.744333       1.51384        0.00309956     
0.75221        1.50972        0.00309586     
0.760086       1.49797        0.00308385     
0.767963       1.49151        0.00307706     
0.77584        1.46825        0.00305302     
0.783716       1.45817        0.00304271     
0.791593       1.44032        0.00302306     
0.799469       1.43577        0.00301938     
0.807346       1.41758        0.00300074     
0.815222       1.4061         0.00298684     
0.823099       1.39388        0.00297533     
0.830975       1.37807        0.0029575      
0.838852       1.36689        0.00294594     
0.846728       1.3499         0.00292716     
0.854605       1.32879        0.00290419     
0.862482       1.32593        0.00290048     
0.870358       1.31221        0.00288664     
0.878235       1.29397        0.00286635     
0.886111       1.27555        0.00284521     
0.893988       1.26354        0.0028327      
0.901864       1.25011        0.00281698     
0.909741       1.23811        0.00280339     
0.917617       1.22266        0.00278639     
0.925494       1.20689        0.00276743     
0.93337        1.19307        0.00275198     
0.941247       1.17684        0.0027328      
0.949124       1.16194        0.00271547     
0.957          1.15198        0.0027038      
0.964877       1.13392        0.00268262     
0.972753       1.11944        0.00266608     
0.98063        1.10296        0.00264584     
0.988506       1.09258        0.00263306     
0.996383       1.07283        0.00260984     
1.00426        1.06354        0.00259845     
1.01214        1.05021        0.00258201     
1.02001        1.03827        0.00256662     
1.02789        1.01896        0.00254335     
1.03577        1.00405        0.00252481     
1.04364        0.991234       0.00250818     
1.05152        0.979179       0.00249312     
1.0594         0.959317       0.00246702     
1.06727        0.949522       0.00245524     
1.07515        0.934877       0.00243603     
1.08302        0.924384       0.00242213     
1.0909         0.903182       0.0023938      
1.09878        0.889578       0.00237629     
1.10665        0.876279       0.00235868     
1.11453        0.865589       0.00234419     
1.12241        0.848703       0.00232158     
1.13028        0.839956       0.00230837     
1.13816        0.827812       0.0022925      
1.14604        0.817313       0.002278       
1.15391        0.801373       0.00225522     
1.16179        0.786817       0.00223558     
1.16967        0.777911       0.00222219     
1.17754        0.764688       0.0022038      
1.18542        0.752494       0.00218536     
1.1933         0.739569       0.00216697     
1.20117        0.725756       0.00214716     
1.20905        0.714704       0.00213031     
1.21693        0.70317        0.00211292     
1.2248         0.690595       0.00209394     
1.23268        0.680946       0.0020791      
1.24056        0.665108       0.00205443     
1.24843        0.657344       0.00204315     
1.25631        0.645543       0.00202475     
1.26419        0.634466       0.00200715     
1.27206        0.625484       0.00199245     
1.27994        0.614654       0.00197553     
1.28781        0.60404        0.00195812     
1.29569        0.58998        0.00193547     
1.30357        0.584133       0.00192564     
1.31144        0.570352       0.0019027      
1.31932        0.562175       0.00188905     
1.3272         0.553384       0.00187409     
1.33507        0.54143        0.00185343     
1.34295        0.532448       0.00183816     
1.35083        0.523148       0.00182239     
1.3587         0.510262       0.00179965     
1.36658        0.503317       0.00178809     
1.37446        0.493986       0.00177051     
1.38233        0.484349       0.00175377     
1.39021        0.475945       0.00173782     
1.39809        0.468727       0.00172469     
1.40596        0.458653       0.00170623     
1.41384        0.449791       0.00168981     
1.42172        0.438847       0.00166915     
1.42959        0.435305       0.00166223     
1.43747        0.423822       0.00164058     
1.44535        0.417918       0.00162862     
1.45322        0.40952        0.00161256     
1.4611         0.399966       0.00159298     
1.46898        0.393002       0.00157967     
1.47685        0.384337       0.00156206     
1.48473        0.378542       0.00155008     
1.49261        0.36907        0.00153057     
1.50048        0.363535       0.00151906     
1.50836        0.359212       0.00151016     
1.51623        0.350585       0.00149224     
1.52411        0.343209       0.00147611     
1.53199        0.33794        0.00146444     
1.53986        0.333592       0.00145512     
1.54774        0.321943       0.00142976     
1.55562        0.313818       0.00141136     
1.56349        0.310968       0.00140517     
1.57137        0.304785       0.00139065     
1.57925        0.297707       0.00137462     
1.58712        0.293289       0.00136434     
1.595          0.285861       0.00134742     
1.60288        0.280681       0.00133471     
1.61075        0.275984       0.00132357     
1.61863        0.272378       0.00131459     
1.62651        0.265992       0.0012998      
1.63438        0.25708        0.0012775      
1.64226        0.253874       0.00126932     
1.65014        0.249538       0.00125832     
1.65801        0.242765       0.00124118     
1.66589        0.237909       0.00122881     
1.67377        0.234145       0.00121919     
1.68164        0.226387       0.00119886     
1.68952        0.224718       0.00119425     
1.6974         0.218427       0.00117744     
1.70527        0.215875       0.00117056     
1.71315        0.211355       0.00115797     
1.72102        0.204087       0.00113858     
1.7289         0.203471       0.00113683     
1.73678        0.198374       0.00112201     
1.74465        0.19122        0.00110198     
1.75253        0.188027       0.00109266     
1.76041        0.183627       0.00107996     
1.76828        0.18185        0.00107429     
1.77616        0.17594        0.00105666     
1.78404        0.174867       0.00105355     
1.79191        0.170735       0.0010411      
1.79979        0.165079       0.00102384     
1.80767        0.163377       0.00101848     
1.81554        0.158026       0.00100163     
1.82342        0.153627       0.000987709    
1.8313         0.150593       0.000977645    
1.83917        0.149139       0.000973008    
1.84705        0.144492       0.000957556    
1.85493        0.142486       0.000950771    
1.8628         0.1381         0.000936606    
1.87068        0.138601       0.000937957    
1.87856        0.13273        0.000917915    
1.88643        0.130889       0.000911231    
1.89431        0.125601       0.000892931    
1.90219        0.124464       0.000888755    
1.91006        0.120776       0.000875786    
1.91794        0.119805       0.000872081    
1.92582        0.116301       0.000859492    
1.93369        0.113629       0.000849157    
1.94157        0.111058       0.000839605    
1.94944        0.109344       0.00083316     
1.95732        0.10563        0.000819014    
1.9652         0.103961       0.00081238     
1.97307        0.103034       0.000808657    
1.98095        0.100831       0.000799878    
1.98883        0.0976443      0.0007871      
1.9967         0.0961272      0.000781329    
2.00458        0.0923819      0.000765829    
2.01246        0.0917915      0.000763118    
2.02033        0.0893412      0.0007533      
2.02821        0.0877606      0.000746404    
2.03609        0.08432        0.000731427    
2.04396        0.0831837      0.000726652    
2.05184        0.0816411      0.000719892    
2.05972        0.0798447      0.000711937    
2.06759        0.0769881      0.000699102    
2.07547        0.0765564      0.000697315    
2.08335        0.0750266      0.00069015     
2.09122        0.0727349      0.000679423    
2.0991         0.070748       0.000670207    
2.10698        0.0693578      0.000663598    
2.11485        0.0671297      0.000652681    
2.12273        0.0658855      0.000646671    
2.13061        0.0643493      0.000639094    
2.13848        0.0624703      0.000629638    
2.14636        0.0616387      0.000625501    
2.15423        0.0597724      0.000615836    
2.16211        0.0592773      0.000613281    
2.16999        0.0579696      0.000606615    
2.17786        0.056281       0.000597723    
2.18574        0.0547956      0.000589858    
2.19362        0.0538688      0.000584716    
2.20149        0.0526563      0.000578172    
2.20937        0.0511519      0.000569789    
2.21725        0.0505679      0.000566529    
2.22512        0.0486317      0.000555658    
2.233          0.0482699      0.000553588    
2.24088        0.0466702      0.000544272    
2.24875        0.0450515      0.000534832    
2.25663        0.0450451      0.000534719    
2.26451        0.0434708      0.000525374    
2.27238        0.0432868      0.000524185    
2.28026        0.0407412      0.000508548    
2.28814        0.0398779      0.000503295    
2.29601        0.0391987      0.000498753    
2.30389        0.0382338      0.00049266     
2.31177        0.0381639      0.000492292    
2.31964        0.0375672      0.000488267    
2.32752        0.0362596      0.000479864    
2.3354         0.0344694      0.000467795    
2.34327        0.0337204      0.000462687    
2.35115        0.0331808      0.000459061    
2.35902        0.0324444      0.000453766    
2.3669         0.0316509      0.000448184    
2.37478        0.0313145      0.000445887    
2.38265        0.0306607      0.00044121     
2.39053        0.0295815      0.000433288    
2.39841        0.0290102      0.000429272    
2.40628        0.0287182      0.00042692     
2.41416        0.0267884      0.000412525    
2.42204        0.0269281      0.000413403    
2.42991        0.0255442      0.000402743    
2.43779        0.0259759      0.000406129    
2.44567        0.0261219      0.000407367    
2.45354        0.0244968      0.000394303    
2.46142        0.0233605      0.000385156    
2.4693         0.0227384      0.00037989     
2.47717        0.0224908      0.000377817    
2.48505        0.0223893      0.000376963    
2.49293        0.0213736      0.000368315    
2.5008         0.0218306      0.000372231    
2.50868        0.02025        0.000358505    
2.51656        0.0206817      0.000362305    
2.52443        0.0195327      0.000352099    
2.53231        0.0188915      0.000346273    
2.54019        0.0189042      0.000346389    
2.54806        0.0186186      0.00034388     
2.55594        0.0182758      0.000340584    
2.56382        0.017368       0.000332019    
2.57169        0.0168475      0.000327006    
2.57957        0.016492       0.000323538    
2.58744        0.0168729      0.000327252    
2.59532        0.0159334      0.000318139    
2.6032         0.0152161      0.000310772    
2.61107        0.0148669      0.000307187    
2.61895        0.0145686      0.000304089    
2.62683        0.0144987      0.000303359    
2.6347         0.0140036      0.000298135    
2.64258        0.0133498      0.000291093    
2.65046        0.0135656      0.000293436    
2.65833        0.0122706      0.00027908     
2.66621        0.0128927      0.000286067    
2.67409        0.012461       0.000281237    
2.68196        0.0119723      0.000275667    
2.68984        0.0117691      0.000273319    
2.69772        0.0116422      0.00027184     
2.70559        0.0112295      0.00026698     
2.71347        0.0104995      0.000258313    
2.72135        0.0110772      0.000265163    
2.72922        0.0100361      0.000252396    
2.7371         0.00986473     0.000250232    
2.74498        0.00987743     0.000250393    
2.75285        0.00916011     0.00024113     
2.76073        0.00964255     0.000247398    
2.76861        0.00922994     0.000242048    
2.77648        0.00901411     0.000239201    
2.78436        0.0087348      0.000235466    
2.79223        0.00865227     0.000234351    
2.80011        0.00815713     0.000227547    
2.80799        0.00772547     0.000221445    
2.81586        0.00782704     0.000222896    
2.82374        0.00768103     0.000220808    
2.83162        0.00725572     0.000214608    
2.83949        0.00714146     0.000212911    
2.84737        0.00693832     0.000209861    
2.85525        0.00681136     0.000207933    
2.86312        0.0065257      0.000203526    
2.871          0.00693197     0.000209765    
2.87888        0.00645588     0.000202434    
2.88675        0.00644953     0.000202335    
2.89463        0.00617657     0.000198007    
2.90251        0.00597343     0.000194724    
2.91038        0.0059036      0.000193582    
2.91826        0.00579569     0.000191805    
2.92614        0.00509107     0.000179768    
2.93401        0.00573221     0.000190752    
2.94189        0.00527516     0.000182989    
2.94977        0.00516724     0.000181108    
2.95764        0.00503393     0.000178757    
2.96552        0.00509107     0.000179768    
2.9734         0.00425948     0.000164433    
2.98127        0.00477367     0.000174074    
2.98915        0.00429757     0.000165166    
2.99702        0.00455149     0.000169975    
3.0049         0.00431027     0.00016541     
3.01278        0.0042087      0.00016345     
3.02065        0.00443723     0.000167828    
3.02853        0.0037326      0.000153928    
3.03641        0.003904       0.000157422    
3.04428        0.00377704     0.000154841    
3.05216        0.00370086     0.000153272    
3.06004        0.00333268     0.000145448    
3.06791        0.00324381     0.000143496    
3.07579        0.00323746     0.000143355    
3.08367        0.00333268     0.000145448    
3.09154        0.00335807     0.000146001    
3.09942        0.00304067     0.00013893     
3.1073         0.00307876     0.000139798    
3.11517        0.00292641     0.000136295    
3.12305        0.00288197     0.000135256    
3.13093        0.00302163     0.000138495    
3.1388         0.00256458     0.000127591    
3.14668        0.0026471      0.000129628    
3.15456        0.0025011      0.000126002    
3.16243        0.00272962     0.000131633    
3.17031        0.00245031     0.000124716    
3.17819        0.00224718     0.000119435    
3.18606        0.00253918     0.000126958    
3.19394        0.00217735     0.000117565    
3.20182        0.00226622     0.00011994     
3.20969        0.00216465     0.000117222    
3.21757        0.00213292     0.000116359    
3.22544        0.00234875     0.000122104    
3.23332        0.0020123      0.000113021    
3.2412         0.00216465     0.000117222    
3.24907        0.00194248     0.000111043    
3.25695        0.00166951     0.000102946    
3.26483        0.00185995     0.000108659    
3.2727         0.00178378     0.00010641     
3.28058        0.00175839     0.00010565     
3.28846        0.00166317     0.00010275     
3.29633        0.0015616      9.95633e-05    
3.30421        0.00166951     0.000102946    
3.31209        0.00154255     9.89543e-05    
3.31996        0.00161873     0.000101368    
3.32784        0.00146003     9.62711e-05    
3.33572        0.00159969     0.00010077     
3.34359        0.00153621     9.87505e-05    
3.35147        0.00133942     9.2209e-05     
3.35935        0.00145368     9.60615e-05    
3.36722        0.00116168     8.58732e-05    
3.3751         0.00133307     9.19902e-05    
3.38298        0.00135846     9.28622e-05    
3.39085        0.00119342     8.70385e-05    
3.39873        0.00119342     8.70385e-05    
3.40661        0.00111089     8.39753e-05    
