p (GeV)        dN/dp          error          
0.00293956     7.14391e-05    1.55893e-05    
0.00881869     0.000632747    4.63952e-05    
0.0146978      0.00157166     7.312e-05      
0.020577       0.00332022     0.000106277    
0.0264561      0.00541917     0.000135774    
0.0323352      0.00855229     0.000170565    
0.0382143      0.0114337      0.000197213    
0.0440935      0.0148389      0.000224668    
0.0499726      0.0193464      0.000256527    
0.0558517      0.0246771      0.000289717    
0.0617309      0.0292492      0.000315449    
0.06761        0.0353147      0.000346604    
0.0734891      0.0405298      0.000371274    
0.0793683      0.0477996      0.00040319     
0.0852474      0.0556443      0.000435115    
0.0911265      0.0647409      0.000469282    
0.0970056      0.0720175      0.000495004    
0.102885       0.0800254      0.000521684    
0.108764       0.08952        0.000551911    
0.114643       0.0990078      0.000580245    
0.120522       0.108451       0.000607418    
0.126401       0.120287       0.000639695    
0.13228        0.130751       0.000667056    
0.13816        0.142494       0.000696377    
0.144039       0.154339       0.000724731    
0.149918       0.166497       0.000752551    
0.155797       0.179431       0.000781299    
0.161676       0.191249       0.000806506    
0.167555       0.203901       0.000832784    
0.173434       0.21823        0.000861469    
0.179313       0.23282        0.00088992     
0.185193       0.247037       0.000916653    
0.191072       0.260297       0.000941075    
0.196951       0.276378       0.000969651    
0.20283        0.29206        0.000996796    
0.208709       0.306079       0.00102037     
0.214588       0.321983       0.00104645     
0.220467       0.339227       0.00107409     
0.226347       0.355243       0.00109928     
0.232226       0.36984        0.00112166     
0.238105       0.387748       0.00114848     
0.243984       0.404771       0.00117359     
0.249863       0.422304       0.00119844     
0.255742       0.440586       0.00122439     
0.261621       0.45571        0.00124503     
0.2675         0.471355       0.00126631     
0.27338        0.490841       0.00129213     
0.279259       0.509279       0.00131616     
0.285138       0.524659       0.00133604     
0.291017       0.542965       0.00135931     
0.296896       0.562927       0.001384       
0.302775       0.578865       0.00140319     
0.308654       0.597782       0.00142601     
0.314533       0.616693       0.00144843     
0.320413       0.635812       0.0014708      
0.326292       0.653995       0.00149156     
0.332171       0.670933       0.00151079     
0.33805        0.691643       0.00153378     
0.343929       0.70738        0.00155106     
0.349808       0.727512       0.00157318     
0.355687       0.74096        0.00158755     
0.361566       0.762742       0.00161091     
0.367446       0.778346       0.00162738     
0.373325       0.797921       0.00164746     
0.379204       0.813284       0.00166341     
0.385083       0.830739       0.00168109     
0.390962       0.848561       0.00169938     
0.396841       0.868316       0.00171872     
0.40272        0.883763       0.0017336      
0.4086         0.90079        0.00175041     
0.414479       0.916306       0.0017656      
0.420358       0.936516       0.00178508     
0.426237       0.951079       0.0017985      
0.432116       0.969235       0.00181571     
0.437995       0.985085       0.00183033     
0.443874       0.997008       0.00184155     
0.449753       1.01571        0.00185884     
0.455633       1.02855        0.00187084     
0.461512       1.04399        0.00188484     
0.467391       1.05762        0.00189679     
0.47327        1.06839        0.00190626     
0.479149       1.09181        0.00192704     
0.485028       1.10667        0.00193991     
0.490907       1.11921        0.00195158     
0.496786       1.13023        0.00196108     
0.502666       1.14487        0.00197346     
0.508545       1.15778        0.00198416     
0.514424       1.17069        0.00199562     
0.520303       1.1873         0.00200999     
0.526182       1.1981         0.0020188      
0.532061       1.20964        0.00202846     
0.53794        1.21826        0.00203542     
0.54382        1.23257        0.00204806     
0.549699       1.24514        0.00205832     
0.555578       1.25498        0.00206592     
0.561457       1.26727        0.00207621     
0.567336       1.27866        0.00208576     
0.573215       1.28744        0.00209251     
0.579094       1.29395        0.00209787     
0.584973       1.29904        0.00210173     
0.590853       1.31254        0.00211313     
0.596732       1.31496        0.00211489     
0.602611       1.33133        0.00212841     
0.60849        1.33598        0.00213196     
0.614369       1.34779        0.00214104     
0.620248       1.35265        0.00214494     
0.626127       1.3611         0.00215207     
0.632006       1.36689        0.00215626     
0.637886       1.37393        0.00216155     
0.643765       1.38003        0.00216656     
0.649644       1.38839        0.00217303     
0.655523       1.39733        0.00218041     
0.661402       1.39817        0.00218098     
0.667281       1.40299        0.00218442     
0.67316        1.40828        0.00218877     
0.67904        1.41158        0.0021912      
0.684919       1.4166         0.00219541     
0.690798       1.42271        0.0022003      
0.696677       1.42049        0.00219806     
0.702556       1.42716        0.00220337     
0.708435       1.43156        0.00220646     
0.714314       1.43298        0.00220768     
0.720193       1.43178        0.00220738     
0.726073       1.4395         0.00221247     
0.731952       1.44239        0.00221491     
0.737831       1.44087        0.00221377     
0.74371        1.44195        0.002215       
0.749589       1.44322        0.00221605     
0.755468       1.44176        0.00221478     
0.761347       1.44555        0.00221787     
0.767226       1.44067        0.00221398     
0.773106       1.44287        0.00221566     
0.778985       1.44081        0.0022138      
0.784864       1.43983        0.00221345     
0.790743       1.44191        0.00221509     
0.796622       1.43617        0.00220991     
0.802501       1.43602        0.00221011     
0.80838        1.43721        0.00221121     
0.81426        1.43108        0.0022064      
0.820139       1.4338         0.00220859     
0.826018       1.42473        0.00220169     
0.831897       1.42232        0.00219969     
0.837776       1.41838        0.00219654     
0.843655       1.42199        0.0021997      
0.849534       1.41798        0.00219666     
0.855413       1.41297        0.00219194     
0.861293       1.41261        0.00219229     
0.867172       1.40559        0.00218651     
0.873051       1.39728        0.00218012     
0.87893        1.39351        0.00217718     
0.884809       1.39027        0.00217473     
0.890688       1.38442        0.00217047     
0.896567       1.3821         0.00216791     
0.902446       1.38115        0.00216775     
0.908326       1.37111        0.00215999     
0.914205       1.36623        0.00215604     
0.920084       1.36342        0.00215359     
0.925963       1.35252        0.00214493     
0.931842       1.34519        0.00213912     
0.937721       1.34529        0.00213925     
0.9436         1.33641        0.00213206     
0.949479       1.32915        0.00212696     
0.955359       1.32627        0.00212444     
0.961238       1.31914        0.00211812     
0.967117       1.30738        0.00210911     
0.972996       1.30375        0.00210612     
0.978875       1.29881        0.00210194     
0.984754       1.28803        0.0020929      
0.990633       1.27973        0.00208655     
0.996513       1.27344        0.00208105     
1.00239        1.26909        0.00207791     
1.00827        1.2625         0.00207263     
1.01415        1.25506        0.00206656     
1.02003        1.249          0.00206164     
1.02591        1.23975        0.00205336     
1.03179        1.23174        0.00204704     
1.03767        1.22364        0.00204011     
1.04355        1.21653        0.00203438     
1.04942        1.20766        0.00202708     
1.0553         1.1996         0.00202019     
1.06118        1.19076        0.00201268     
1.06706        1.182          0.00200526     
1.07294        1.17641        0.00200078     
1.07882        1.16744        0.00199281     
1.0847         1.15475        0.00198177     
1.09058        1.1511         0.00197881     
1.09646        1.1406         0.00196976     
1.10234        1.12784        0.0019586      
1.10822        1.12406        0.00195557     
1.1141         1.11336        0.0019462      
1.11997        1.10481        0.00193866     
1.12585        1.09526        0.00193027     
1.13173        1.08931        0.0019249      
1.13761        1.07782        0.00191481     
1.14349        1.06559        0.00190394     
1.14937        1.0627         0.00190143     
1.15525        1.05423        0.00189367     
1.16113        1.0479         0.00188798     
1.16701        1.03714        0.00187863     
1.17289        1.02574        0.00186801     
1.17877        1.01723        0.00186019     
1.18464        1.00975        0.0018532      
1.19052        0.999168       0.00184377     
1.1964         0.990912       0.00183629     
1.20228        0.980162       0.001826       
1.20816        0.975964       0.00182196     
1.21404        0.966847       0.00181341     
1.21992        0.957312       0.00180469     
1.2258         0.946259       0.00179426     
1.23168        0.936084       0.00178434     
1.23756        0.930825       0.00177963     
1.24344        0.923524       0.00177254     
1.24932        0.912023       0.00176138     
1.25519        0.902549       0.00175267     
1.26107        0.893758       0.00174373     
1.26695        0.885539       0.00173565     
1.27283        0.877239       0.0017274      
1.27871        0.8672         0.00171775     
1.28459        0.85779        0.00170828     
1.29047        0.850051       0.00170038     
1.29635        0.84306        0.00169347     
1.30223        0.833212       0.00168351     
1.30811        0.826558       0.00167657     
1.31399        0.81758        0.00166775     
1.31986        0.809865       0.00165994     
1.32574        0.799826       0.00164929     
1.33162        0.788909       0.00163821     
1.3375         0.78448        0.00163387     
1.34338        0.775237       0.0016241      
1.34926        0.76844        0.00161665     
1.35514        0.759214       0.0016068      
1.36102        0.750587       0.00159799     
1.3669         0.744712       0.00159179     
1.37278        0.732588       0.00157854     
1.37866        0.725794       0.00157142     
1.38454        0.715351       0.00156021     
1.39041        0.709574       0.00155372     
1.39629        0.701332       0.00154482     
1.40217        0.693266       0.00153559     
1.40805        0.685489       0.00152679     
1.41393        0.680543       0.00152154     
1.41981        0.669728       0.00150971     
1.42569        0.662496       0.00150107     
1.43157        0.654889       0.00149269     
1.43745        0.648936       0.00148574     
1.44333        0.637591       0.00147288     
1.44921        0.634084       0.00146865     
1.45508        0.624742       0.0014578      
1.46096        0.617782       0.00144971     
1.46684        0.611203       0.00144212     
1.47272        0.605746       0.00143564     
1.4786         0.595683       0.00142367     
1.48448        0.58791        0.00141426     
1.49036        0.582351       0.00140723     
1.49624        0.576174       0.00139983     
1.50212        0.569367       0.00139184     
1.508          0.559083       0.00137912     
1.51388        0.55483        0.00137407     
1.51976        0.549207       0.00136683     
1.52563        0.541046       0.00135679     
1.53151        0.533218       0.00134685     
1.53739        0.52918        0.00134165     
1.54327        0.520778       0.00133109     
1.54915        0.512654       0.00132094     
1.55503        0.506095       0.0013119      
1.56091        0.501601       0.00130624     
1.56679        0.496172       0.00129914     
1.57267        0.489896       0.00129085     
1.57855        0.482752       0.00128161     
1.58443        0.47276        0.00126807     
1.5903         0.469086       0.00126335     
1.59618        0.464038       0.00125625     
1.60206        0.458197       0.00124851     
1.60794        0.453785       0.00124258     
1.61382        0.447049       0.00123306     
1.6197         0.440912       0.00122484     
1.62558        0.435044       0.00121645     
1.63146        0.427158       0.00120525     
1.63734        0.42176        0.00119767     
1.64322        0.419201       0.00119428     
1.6491         0.41252        0.00118486     
1.65498        0.406975       0.00117676     
1.66085        0.400933       0.00116782     
1.66673        0.396266       0.0011609      
1.67261        0.39           0.00115189     
1.67849        0.385333       0.00114516     
1.68437        0.381693       0.00113933     
1.69025        0.375552       0.00113033     
1.69613        0.36948        0.00112115     
1.70201        0.365289       0.00111476     
1.70789        0.360434       0.00110749     
1.71377        0.354859       0.0010988      
1.71965        0.351399       0.0010935      
1.72552        0.344861       0.00108338     
1.7314         0.34169        0.00107823     
1.73728        0.334488       0.00106681     
1.74316        0.330161       0.00105964     
1.74904        0.32761        0.00105579     
1.75492        0.321218       0.0010453      
1.7608         0.319091       0.00104204     
1.76668        0.314509       0.00103427     
1.77256        0.309675       0.00102628     
1.77844        0.305304       0.00101916     
1.78432        0.301184       0.00101223     
1.7902         0.295544       0.00100264     
1.79607        0.292315       0.000997323    
1.80195        0.288335       0.000990312    
1.80783        0.282698       0.000980616    
1.81371        0.27915        0.000974474    
1.81959        0.274786       0.000966863    
1.82547        0.270356       0.00095904     
1.83135        0.268557       0.000955817    
1.83723        0.264114       0.000947952    
1.84311        0.259549       0.000939823    
1.84899        0.254837       0.000931047    
1.85487        0.252429       0.000926625    
1.86074        0.248863       0.000920089    
1.86662        0.245376       0.000913551    
1.8725         0.241036       0.000905443    
1.87838        0.24027        0.000903982    
1.88426        0.234184       0.000892633    
1.89014        0.232429       0.000889252    
1.89602        0.22687        0.000878452    
1.9019         0.225595       0.000876038    
1.90778        0.220587       0.000866193    
1.91366        0.217495       0.000860115    
1.91954        0.214212       0.000853642    
1.92542        0.210759       0.000846806    
1.93129        0.208783       0.000842782    
1.93717        0.205517       0.00083625     
1.94305        0.203517       0.000832223    
1.94893        0.201863       0.000828566    
1.95481        0.197713       0.000820177    
1.96069        0.194954       0.000814335    
1.96657        0.190001       0.000804033    
1.97245        0.188157       0.000799972    
1.97833        0.185126       0.000793661    
1.98421        0.183582       0.000790322    
1.99009        0.180306       0.000783196    
1.99596        0.175587       0.000772947    
2.00184        0.174624       0.000770665    
2.00772        0.171811       0.00076467     
2.0136         0.169528       0.000759342    
2.01948        0.166678       0.000753004    
2.02536        0.163327       0.000745411    
2.03124        0.161048       0.000740186    
2.03712        0.157629       0.000732144    
2.043          0.156302       0.000729299    
2.04888        0.153911       0.000723711    
2.05476        0.151716       0.000718464    
2.06064        0.148413       0.000710663    
2.06651        0.145852       0.000704484    
2.07239        0.144433       0.000701089    
2.07827        0.143307       0.000698158    
2.08415        0.140922       0.000692333    
2.09003        0.138575       0.000686619    
2.09591        0.13521        0.000678127    
2.10179        0.133125       0.000672936    
2.10767        0.132162       0.000670502    
2.11355        0.129676       0.000664208    
2.11943        0.127771       0.000659267    
2.12531        0.125093       0.000652351    
2.13118        0.123243       0.00064764     
2.13706        0.121746       0.000643612    
2.14294        0.120902       0.00064131     
2.14882        0.117517       0.000632226    
2.1547         0.115538       0.000627051    
2.16058        0.113469       0.000621236    
2.16646        0.111588       0.000616127    
2.17234        0.110632       0.000613429    
2.17822        0.109697       0.000610909    
2.1841         0.106036       0.000600625    
2.18998        0.106162       0.000600981    
2.19586        0.1036         0.000593676    
2.20173        0.103019       0.000591931    
2.20761        0.101362       0.000587255    
2.21349        0.100096       0.000583563    
2.21937        0.097113       0.000574771    
2.22525        0.0958101      0.000570988    
2.23113        0.0947351      0.000567719    
2.23701        0.0924218      0.000560753    
2.24289        0.090874       0.000555939    
2.24877        0.0896289      0.000552246    
2.25465        0.0887648      0.000549518    
2.26053        0.0874245      0.000545379    
2.2664         0.0846078      0.000536445    
2.27228        0.0838798      0.000534156    
2.27816        0.0827878      0.000530649    
2.28404        0.0812365      0.000525658    
2.28992        0.0796955      0.00052063     
2.2958         0.0789403      0.000518159    
2.30168        0.0763038      0.000509484    
2.30756        0.0767256      0.000510867    
2.31344        0.0754193      0.000506549    
2.31932        0.0734803      0.000499954    
2.3252         0.0722896      0.000495867    
2.33108        0.0712078      0.000492122    
2.33695        0.0695851      0.000486534    
2.34283        0.0689966      0.000484521    
2.34871        0.0684693      0.00048274     
2.35459        0.0666561      0.000476192    
2.36047        0.0652273      0.00047104     
2.36635        0.0643463      0.000467801    
2.37223        0.0636046      0.000465198    
2.37811        0.0631726      0.000463517    
2.38399        0.061999       0.000459294    
2.38987        0.0609478      0.000455387    
2.39575        0.0589815      0.000447936    
2.40162        0.0583079      0.000445321    
2.4075         0.0575629      0.000442521    
2.41338        0.0574813      0.000442128    
2.41926        0.0553857      0.00043405     
2.42514        0.0541951      0.000429362    
2.43102        0.0545115      0.000430586    
2.4369         0.052984       0.000424677    
2.44278        0.0520621      0.00042086     
2.44866        0.0509905      0.000416593    
2.45454        0.049572       0.000410735    
2.46042        0.0496604      0.000411017    
2.4663         0.0489188      0.000407881    
2.47217        0.0483065      0.00040535     
2.47805        0.0466736      0.000398472    
2.48393        0.0458129      0.000394812    
2.48981        0.045636       0.000393991    
2.49569        0.0444011      0.000388626    
2.50157        0.0439385      0.000386597    
2.50745        0.0432105      0.000383382    
2.51333        0.042377       0.000379638    
2.51921        0.0419722      0.000377943    
2.52509        0.0411013      0.000373881    
2.53097        0.0404414      0.000370899    
2.53684        0.0399243      0.000368584    
2.54272        0.0390942      0.000364672    
