p (GeV)        dN/dp          error          
0.00311568     2.56766e-05    9.07804e-06    
0.00934704     0.000176526    2.38028e-05    
0.0155784      0.000503903    4.02158e-05    
0.0218098      0.000950033    5.52194e-05    
0.0280411      0.00174601     7.4859e-05     
0.0342725      0.00265432     9.22989e-05    
0.0405038      0.00346634     0.000105476    
0.0467352      0.00467314     0.000122468    
0.0529666      0.00597943     0.000138531    
0.0591979      0.00750719     0.000155222    
0.0654293      0.00929171     0.000172746    
0.0716606      0.010598       0.000184426    
0.077892       0.0127484      0.000202271    
0.0841234      0.0147095      0.000217271    
0.0903547      0.0172258      0.000235164    
0.0965861      0.0196554      0.000251153    
0.102817       0.0220305      0.000265892    
0.109049       0.0250764      0.000283712    
0.11528        0.0281319      0.000300459    
0.121512       0.0305969      0.000313343    
0.127743       0.0340407      0.000330598    
0.133974       0.0373337      0.000346118    
0.140206       0.0404181      0.000360214    
0.146437       0.0435122      0.00037371     
0.152668       0.0477584      0.000391536    
0.1589         0.0523578      0.000409943    
0.165131       0.0558241      0.000423237    
0.171362       0.059345       0.000436445    
0.177594       0.0638801      0.000452824    
0.183825       0.0674139      0.000465169    
0.190056       0.0721929      0.000481317    
0.196288       0.0763429      0.000495031    
0.202519       0.0821971      0.000513581    
0.208751       0.085044       0.00052247     
0.214982       0.0924935      0.000544828    
0.221213       0.0971698      0.000558472    
0.227445       0.100822       0.000568858    
0.233676       0.10703        0.000586226    
0.239907       0.112159       0.000599946    
0.246139       0.117217       0.000613325    
0.25237        0.1218         0.000625251    
0.258601       0.127985       0.000640936    
0.264833       0.133306       0.000654135    
0.271064       0.139947       0.000670155    
0.277296       0.144903       0.000681989    
0.283527       0.150141       0.000694212    
0.289758       0.155722       0.000706987    
0.29599        0.161807       0.000720656    
0.302221       0.167719       0.000733634    
0.308452       0.173895       0.000747129    
0.314684       0.179017       0.000758015    
0.320915       0.185549       0.000771795    
0.327146       0.191862       0.000784769    
0.333378       0.198968       0.000799094    
0.339609       0.205547       0.000812282    
0.34584        0.210619       0.000822126    
0.352072       0.216393       0.000833464    
0.358303       0.222536       0.000845068    
0.364535       0.229712       0.00085867     
0.370766       0.235531       0.000869494    
0.376997       0.241973       0.000881244    
0.383229       0.247378       0.000891107    
0.38946        0.253142       0.000901419    
0.395691       0.262055       0.000916976    
0.401923       0.266074       0.000924014    
0.408154       0.272525       0.000935114    
0.414385       0.277259       0.000943373    
0.420617       0.284541       0.000955746    
0.426848       0.292084       0.000968251    
0.43308        0.296054       0.000974785    
0.439311       0.30222        0.000984898    
0.445542       0.310908       0.000999107    
0.451774       0.316143       0.00100726     
0.458005       0.321634       0.00101612     
0.464236       0.326831       0.00102429     
0.470468       0.334161       0.00103556     
0.476699       0.339842       0.0010442      
0.48293        0.346727       0.00105502     
0.489162       0.351227       0.00106168     
0.495393       0.357392       0.0010712      
0.501624       0.363394       0.00107987     
0.507856       0.36963        0.00108921     
0.514087       0.373633       0.00109505     
0.520319       0.379031       0.00110306     
0.52655        0.384818       0.00111129     
0.532781       0.391151       0.00112048     
0.539013       0.396366       0.00112785     
0.545244       0.401832       0.00113581     
0.551475       0.406155       0.00114166     
0.557707       0.409496       0.0011463      
0.563938       0.416952       0.00115689     
0.570169       0.419019       0.00115974     
0.576401       0.425692       0.00116894     
0.582632       0.428703       0.0011728      
0.588864       0.433084       0.00117894     
0.595095       0.438912       0.00118694     
0.601326       0.443123       0.00119232     
0.607558       0.447771       0.00119876     
0.613789       0.450348       0.00120228     
0.62002        0.453108       0.00120579     
0.626252       0.45972        0.00121474     
0.632483       0.465295       0.0012221      
0.638714       0.466601       0.00122369     
0.644946       0.470013       0.00122841     
0.651177       0.475832       0.00123593     
0.657408       0.480329       0.00124152     
0.66364        0.483236       0.00124548     
0.669871       0.483711       0.00124631     
0.676103       0.488905       0.00125277     
0.682334       0.490862       0.00125522     
0.688565       0.494322       0.00125924     
0.694797       0.497731       0.00126411     
0.701028       0.498922       0.00126577     
0.707259       0.503588       0.00127134     
0.713491       0.506644       0.00127504     
0.719722       0.506499       0.00127502     
0.725953       0.509664       0.00127887     
0.732185       0.511465       0.0012814      
0.738416       0.514408       0.00128488     
0.744648       0.516446       0.00128731     
0.750879       0.518612       0.0012903      
0.75711        0.518433       0.00128986     
0.763342       0.520939       0.00129266     
0.769573       0.522968       0.00129576     
0.775804       0.527182       0.00130077     
0.782036       0.523825       0.00129644     
0.788267       0.5275         0.00130107     
0.794498       0.527679       0.00130139     
0.80073        0.529169       0.00130315     
0.806961       0.529647       0.00130381     
0.813192       0.531579       0.00130621     
0.819424       0.533283       0.00130843     
0.825655       0.533126       0.00130809     
0.831887       0.53396        0.00130909     
0.838118       0.536307       0.0013118      
0.844349       0.535248       0.00131066     
0.850581       0.533553       0.00130859     
0.856812       0.535331       0.00131085     
0.863043       0.53423        0.0013093      
0.869275       0.534169       0.00130912     
0.875506       0.536602       0.00131231     
0.881737       0.534859       0.00131024     
0.887969       0.536207       0.00131201     
0.8942         0.536268       0.00131194     
0.900432       0.535681       0.00131123     
0.906663       0.534551       0.00130971     
0.912894       0.533286       0.00130829     
0.919126       0.534689       0.00130983     
0.925357       0.533396       0.00130852     
0.931588       0.531476       0.00130604     
0.93782        0.530228       0.00130464     
0.944051       0.529319       0.00130342     
0.950282       0.527012       0.00130079     
0.956514       0.529313       0.00130346     
0.962745       0.525141       0.00129818     
0.968976       0.524036       0.00129701     
0.975208       0.52179        0.00129422     
0.981439       0.522785       0.00129533     
0.987671       0.519245       0.00129109     
0.993902       0.518641       0.00129014     
1.00013        0.517845       0.00128904     
1.00636        0.515303       0.00128588     
1.0126         0.512071       0.00128189     
1.01883        0.50917        0.00127816     
1.02506        0.510165       0.00127984     
1.03129        0.505466       0.00127379     
1.03752        0.505206       0.0012732      
1.04375        0.504269       0.00127221     
1.04998        0.500658       0.00126766     
1.05622        0.49827        0.00126465     
1.06245        0.499259       0.00126602     
1.06868        0.496774       0.00126255     
1.07491        0.491889       0.0012564      
1.08114        0.491857       0.00125632     
1.08737        0.48574        0.00124868     
1.0936         0.482761       0.0012447      
1.09984        0.480335       0.00124126     
1.10607        0.479918       0.00124104     
1.1123         0.475941       0.0012363      
1.11853        0.474163       0.00123354     
1.12476        0.473621       0.0012331      
1.13099        0.471018       0.00122967     
1.13722        0.466293       0.00122361     
1.14345        0.463523       0.00121983     
1.14969        0.461354       0.00121696     
1.15592        0.459575       0.00121461     
1.16215        0.453959       0.00120687     
1.16838        0.451577       0.00120412     
1.17461        0.449157       0.00120074     
1.18084        0.446464       0.00119701     
1.18707        0.443268       0.00119263     
1.19331        0.438184       0.00118587     
1.19954        0.437567       0.00118521     
1.20577        0.432772       0.00117856     
1.212          0.431453       0.00117687     
1.21823        0.425708       0.00116893     
1.22446        0.426395       0.00116986     
1.23069        0.419944       0.00116096     
1.23692        0.416904       0.00115666     
1.24316        0.414828       0.00115376     
1.24939        0.412327       0.00115053     
1.25562        0.409204       0.00114614     
1.26185        0.404528       0.00113941     
1.26808        0.401588       0.00113551     
1.27431        0.398327       0.00113063     
1.28054        0.394694       0.00112546     
1.28678        0.392861       0.00112275     
1.29301        0.388965       0.00111729     
1.29924        0.385624       0.00111247     
1.30547        0.380951       0.00110582     
1.3117         0.380084       0.00110437     
1.31793        0.377606       0.00110087     
1.32416        0.372956       0.00109396     
1.3304         0.36696        0.00108525     
1.33663        0.365789       0.00108353     
1.34286        0.363561       0.00108017     
1.34909        0.359093       0.00107344     
1.35532        0.356372       0.00106962     
1.36155        0.354481       0.0010668      
1.36778        0.349551       0.00105918     
1.37401        0.345103       0.00105257     
1.38025        0.342436       0.00104854     
1.38648        0.340359       0.00104509     
1.39271        0.336768       0.00103962     
1.39894        0.334203       0.00103555     
1.40517        0.332245       0.00103267     
1.4114         0.328034       0.00102611     
1.41763        0.32219        0.00101689     
1.42387        0.320726       0.0010145      
1.4301         0.315199       0.00100579     
1.43633        0.313232       0.00100278     
1.44256        0.309268       0.000996221    
1.44879        0.308578       0.000995154    
1.45502        0.303735       0.000987385    
1.46125        0.300875       0.000982649    
1.46749        0.298397       0.000978494    
1.47372        0.294202       0.000971711    
1.47995        0.291355       0.000966983    
1.48618        0.289786       0.000964352    
1.49241        0.284959       0.000956228    
1.49864        0.281634       0.000950597    
1.50487        0.279474       0.000947043    
1.5111         0.275904       0.000941041    
1.51734        0.273189       0.000936338    
1.52357        0.270368       0.000931529    
1.5298         0.266796       0.000925264    
1.53603        0.265316       0.00092287     
1.54226        0.260396       0.000914268    
1.54849        0.25874        0.000911242    
1.55472        0.255171       0.000904932    
1.56096        0.252295       0.000899925    
1.56719        0.249201       0.000894501    
1.57342        0.248113       0.000892356    
1.57965        0.244313       0.00088547     
1.58588        0.238869       0.000875579    
1.59211        0.238407       0.00087484     
1.59834        0.23556        0.000869547    
1.60458        0.229956       0.000859041    
1.61081        0.23132        0.000861722    
1.61704        0.226853       0.000853192    
1.62327        0.224657       0.00084904     
1.6295         0.221746       0.000843596    
1.63573        0.219695       0.000839684    
1.64196        0.216332       0.000833199    
1.64819        0.212448       0.000825767    
1.65443        0.210208       0.000821451    
1.66066        0.209116       0.000819196    
1.66689        0.204877       0.000810844    
1.67312        0.204174       0.000809545    
1.67935        0.201086       0.000803442    
1.68558        0.198949       0.000799133    
1.69181        0.193845       0.000788765    
1.69805        0.194259       0.000789657    
1.70428        0.190523       0.000781968    
1.71051        0.188062       0.000776871    
1.71674        0.186065       0.000772893    
1.72297        0.183514       0.000767454    
1.7292         0.181761       0.000763817    
1.73543        0.177785       0.000755502    
1.74167        0.176754       0.000753234    
1.7479         0.1741         0.000747528    
1.75413        0.17098        0.000740801    
1.76036        0.167928       0.000734145    
1.76659        0.167116       0.000732273    
1.77282        0.165226       0.000728311    
1.77905        0.162879       0.000723077    
1.78528        0.160992       0.000718784    
1.79152        0.158518       0.000713278    
1.79775        0.156383       0.000708542    
1.80398        0.154474       0.000704241    
1.81021        0.153251       0.000701322    
1.81644        0.149736       0.000693189    
1.82267        0.147868       0.000688829    
1.8289         0.146356       0.00068541     
1.83514        0.144007       0.000679837    
1.84137        0.141706       0.000674331    
1.8476         0.139729       0.000669695    
1.85383        0.138544       0.000666856    
1.86006        0.137055       0.000663315    
1.86629        0.13398        0.000655689    
1.87252        0.131811       0.000650319    
1.87876        0.131255       0.000649045    
1.88499        0.128158       0.000641402    
1.89122        0.12758        0.000639909    
1.89745        0.125392       0.000634323    
1.90368        0.123171       0.0006289      
1.90991        0.122025       0.000625793    
1.91614        0.119868       0.000620312    
1.92237        0.118369       0.000616579    
1.92861        0.115394       0.00060856     
1.93484        0.115301       0.000608434    
1.94107        0.11394        0.0006046      
1.9473         0.112107       0.000599809    
1.95353        0.10935        0.000592414    
1.95976        0.107999       0.000588817    
1.96599        0.106709       0.000585154    
1.97223        0.104799       0.000579989    
1.97846        0.103987       0.000577723    
1.98469        0.102787       0.000574347    
1.99092        0.100444       0.000567772    
1.99715        0.0999878      0.000566556    
2.00338        0.0973752      0.000559098    
2.00961        0.0963449      0.000556062    
2.01584        0.0949359      0.000551967    
2.02208        0.0936778      0.000548339    
2.02831        0.0922656      0.000544176    
2.03454        0.0909561      0.000540305    
2.04077        0.0902756      0.000538321    
2.047          0.0878941      0.000531065    
2.05323        0.0868927      0.000528034    
2.05946        0.085779       0.000524662    
2.0657         0.085962       0.000525201    
2.07193        0.0826978      0.000515181    
2.07816        0.0819308      0.000512809    
2.08439        0.0808074      0.000509305    
2.09062        0.0793021      0.000504483    
2.09685        0.0791192      0.000503922    
2.10308        0.0763333      0.000495       
2.10932        0.0764905      0.00049553     
2.11555        0.0750334      0.00049073     
2.12178        0.0733644      0.000485288    
2.12801        0.0720421      0.000480878    
2.13424        0.0723502      0.000481947    
2.14047        0.0707005      0.000476427    
2.1467         0.0689384      0.00047035     
2.15293        0.0680943      0.000467508    
2.15917        0.0664253      0.000461704    
2.1654         0.0661653      0.000460845    
2.17163        0.0646697      0.000455611    
2.17786        0.0640534      0.000453392    
2.18409        0.0632542      0.000450556    
2.19032        0.0620442      0.000446275    
2.19655        0.0617522      0.000445271    
2.20279        0.0596146      0.000437434    
2.20902        0.0589053      0.000434779    
2.21525        0.0585298      0.000433415    
2.22148        0.0569506      0.000427557    
2.22771        0.0557246      0.000422933    
2.23394        0.0556764      0.000422751    
2.24017        0.0552849      0.000421214    
2.24641        0.0533912      0.000413941    
2.25264        0.0533816      0.000413929    
2.25887        0.0522679      0.000409641    
2.2651         0.0509295      0.000404266    
2.27133        0.0497259      0.000399514    
2.27756        0.0498286      0.000399926    
2.28379        0.0487245      0.000395421    
2.29002        0.0471711      0.000389149    
2.29626        0.047829       0.000391799    
2.30249        0.0460124      0.00038429     
2.30872        0.0455021      0.000382155    
2.31495        0.0455149      0.000382262    
2.32118        0.0441573      0.00037655     
2.32741        0.0430789      0.00037179     
2.33364        0.0428638      0.000370916    
2.33988        0.0421834      0.00036799     
2.34611        0.0419042      0.000366743    
2.35234        0.0408161      0.000361925    
2.35857        0.0401806      0.000359126    
2.3648         0.0395355      0.000356175    
2.37103        0.0386786      0.000352324    
2.37726        0.0382709      0.000350552    
2.3835         0.0369358      0.000344268    
2.38973        0.0373466      0.000346177    
2.39596        0.0362778      0.000341219    
2.40219        0.0356776      0.000338386    
2.40842        0.0348592      0.000334484    
2.41465        0.0344227      0.000332353    
2.42088        0.0345222      0.000332864    
2.42711        0.0334437      0.000327594    
2.43335        0.032943       0.000325196    
2.43958        0.0316753      0.000318817    
2.44581        0.0312773      0.00031684     
2.45204        0.0305551      0.000313163    
2.45827        0.0307991      0.000314377    
2.4645         0.0300705      0.000310703    
2.47073        0.02896        0.000304882    
2.47697        0.0289536      0.000304848    
2.4832         0.029159       0.000305994    
2.48943        0.0281126      0.00030039     
2.49566        0.0277082      0.000298223    
2.50189        0.0272268      0.000295587    
2.50812        0.0269026      0.000293927    
2.51435        0.0260425      0.000289088    
2.52059        0.0259975      0.000288838    
2.52682        0.0256958      0.000287193    
2.53305        0.0250475      0.000283512    
2.53928        0.025025       0.000283458    
2.54551        0.0241649      0.000278473    
2.55174        0.0238407      0.000276599    
2.55797        0.0231667      0.000272662    
2.5642         0.0228554      0.000270862    
2.57044        0.0228168      0.000270595    
2.57667        0.0218379      0.000264767    
2.5829         0.0218379      0.000264728    
2.58913        0.021273       0.000261282    
2.59536        0.0212377      0.000261065    
2.60159        0.0203038      0.000255301    
2.60782        0.0199571      0.000253073    
2.61406        0.0195046      0.000250187    
2.62029        0.0196073      0.000250886    
2.62652        0.0189268      0.000246455    
2.63275        0.018975       0.00024681     
2.63898        0.0184647      0.00024347     
2.64521        0.0183331      0.000242558    
2.65144        0.0181951      0.000241644    
2.65768        0.0178099      0.000239073    
2.66391        0.0175981      0.000237647    
2.67014        0.0172482      0.000235273    
2.67637        0.0166898      0.000231434    
2.6826         0.0165646      0.000230609    
2.68883        0.0161827      0.000227891    
2.69506        0.0161827      0.000227891    
