pT (GeV)       dN/dpt         error          
0.00393956     0.0199311      0.000224909    
0.0118187      0.0581079      0.000384051    
0.0196978      0.0988307      0.000500941    
0.027577       0.138462       0.000592826    
0.0354561      0.177007       0.00067021     
0.0433352      0.216463       0.000741214    
0.0512143      0.25662        0.000807158    
0.0590935      0.295266       0.000865736    
0.0669726      0.334651       0.000921566    
0.0748517      0.371221       0.000970485    
0.0827309      0.410149       0.00102063     
0.09061        0.449534       0.00106822     
0.0984891      0.483685       0.00110794     
0.106368       0.524982       0.00115419     
0.114247       0.557498       0.00118966     
0.122127       0.594477       0.00122852     
0.130006       0.628937       0.00126352     
0.137885       0.665469       0.00129966     
0.145764       0.701616       0.00133446     
0.153643       0.73714        0.00136778     
0.161522       0.768143       0.00139639     
0.169401       0.803711       0.00142825     
0.17728        0.836295       0.00145707     
0.18516        0.866936       0.00148346     
0.193039       0.8975         0.00150939     
0.200918       0.929648       0.00153621     
0.208797       0.960822       0.00156144     
0.216676       0.988761       0.00158406     
0.224555       1.0194         0.00160868     
0.232434       1.04974        0.00163234     
0.240313       1.07319        0.0016505      
0.248193       1.09954        0.00167071     
0.256072       1.12733        0.00169166     
0.263951       1.15399        0.0017115      
0.27183        1.17757        0.00172875     
0.279709       1.2025         0.00174729     
0.287588       1.22739        0.00176534     
0.295467       1.24793        0.00177953     
0.303347       1.26897        0.00179476     
0.311226       1.28794        0.00180791     
0.319105       1.31305        0.00182549     
0.326984       1.32712        0.00183568     
0.334863       1.34887        0.00185017     
0.342742       1.3627         0.0018597      
0.350621       1.38472        0.00187476     
0.3585         1.40083        0.00188551     
0.36638        1.41244        0.00189337     
0.374259       1.42985        0.00190533     
0.382138       1.44292        0.00191417     
0.390017       1.45713        0.001923       
0.397896       1.46771        0.00193017     
0.405775       1.4835         0.00194039     
0.413654       1.49091        0.00194563     
0.421533       1.49952        0.00195082     
0.429413       1.51461        0.00196069     
0.437292       1.51739        0.00196244     
0.445171       1.5274         0.00196924     
0.45305        1.53697        0.0019751      
0.460929       1.54179        0.00197821     
0.468808       1.55276        0.00198543     
0.476687       1.55598        0.00198727     
0.484566       1.556          0.00198767     
0.492446       1.56015        0.00199043     
0.500325       1.56767        0.00199488     
0.508204       1.56742        0.0019946      
0.516083       1.56851        0.00199531     
0.523962       1.56902        0.00199588     
0.531841       1.57124        0.00199716     
0.53972        1.57042        0.00199679     
0.5476         1.5677         0.00199457     
0.555479       1.57028        0.00199637     
0.563358       1.5691         0.00199561     
0.571237       1.56566        0.00199362     
0.579116       1.56506        0.00199271     
0.586995       1.5563         0.00198798     
0.594874       1.5574         0.00198817     
0.602753       1.55146        0.0019847      
0.610633       1.54728        0.00198185     
0.618512       1.54163        0.00197829     
0.626391       1.5355         0.00197435     
0.63427        1.53           0.00197083     
0.642149       1.52162        0.00196547     
0.650028       1.51792        0.00196293     
0.657907       1.50843        0.00195635     
0.665786       1.49987        0.00195125     
0.673666       1.49092        0.00194574     
0.681545       1.48283        0.00194021     
0.689424       1.47633        0.00193583     
0.697303       1.46693        0.00192953     
0.705182       1.45932        0.00192487     
0.713061       1.45192        0.00191972     
0.72094        1.43633        0.00190935     
0.72882        1.42644        0.00190319     
0.736699       1.41346        0.00189404     
0.744578       1.40835        0.00189118     
0.752457       1.39391        0.00188113     
0.760336       1.38425        0.00187425     
0.768215       1.37164        0.00186614     
0.776094       1.36226        0.00185967     
0.783973       1.34675        0.0018487      
0.791853       1.33597        0.00184173     
0.799732       1.32488        0.00183351     
0.807611       1.31095        0.00182416     
0.81549        1.30097        0.00181708     
0.823369       1.28623        0.00180703     
0.831248       1.27389        0.00179823     
0.839127       1.26036        0.00178888     
0.847006       1.25019        0.00178136     
0.854886       1.23379        0.00177002     
0.862765       1.22146        0.00176104     
0.870644       1.20822        0.00175123     
0.878523       1.19128        0.00173888     
0.886402       1.18133        0.00173161     
0.894281       1.16922        0.00172258     
0.90216        1.15699        0.00171389     
0.91004        1.14261        0.00170295     
0.917919       1.12435        0.00168908     
0.925798       1.11299        0.00168059     
0.933677       1.09625        0.00166829     
0.941556       1.08606        0.00166034     
0.949435       1.07365        0.00165081     
0.957314       1.05569        0.00163698     
0.965193       1.04829        0.00163154     
0.973073       1.03229        0.00161851     
0.980952       1.01746        0.00160716     
0.988831       1.00971        0.00160084     
0.99671        0.991896       0.00158705     
1.00459        0.975874       0.00157371     
1.01247        0.966388       0.00156609     
1.02035        0.951483       0.00155405     
1.02823        0.938979       0.00154391     
1.03611        0.922541       0.00153019     
1.04398        0.912197       0.0015214      
1.05186        0.898145       0.00150996     
1.05974        0.885999       0.00149967     
1.06762        0.874668       0.00149001     
1.0755         0.859377       0.00147706     
1.08338        0.845954       0.00146528     
1.09126        0.834879       0.00145599     
1.09914        0.822022       0.00144466     
1.10702        0.809402       0.00143348     
1.1149         0.795184       0.00142065     
1.12278        0.784995       0.00141149     
1.13066        0.771557       0.00139952     
1.13853        0.760721       0.00138965     
1.14641        0.750217       0.00137991     
1.15429        0.735492       0.00136628     
1.16217        0.723202       0.00135487     
1.17005        0.712574       0.0013447      
1.17793        0.70355        0.00133607     
1.18581        0.691579       0.00132481     
1.19369        0.678466       0.00131216     
1.20157        0.666292       0.00130072     
1.20945        0.657537       0.00129186     
1.21733        0.645279       0.00128012     
1.2252         0.636141       0.00127076     
1.23308        0.624975       0.0012595      
1.24096        0.614527       0.00124887     
1.24884        0.60262        0.00123691     
1.25672        0.595609       0.00122979     
1.2646         0.584856       0.00121831     
1.27248        0.573467       0.00120647     
1.28036        0.563293       0.00119581     
1.28824        0.551307       0.00118291     
1.29612        0.541446       0.0011722      
1.304          0.531861       0.00116192     
1.31188        0.525738       0.0011553      
1.31975        0.513696       0.00114193     
1.32763        0.504817       0.00113207     
1.33551        0.494798       0.00112085     
1.34339        0.48747        0.00111247     
1.35127        0.477718       0.00110113     
1.35915        0.470458       0.00109271     
1.36703        0.461061       0.00108194     
1.37491        0.451852       0.00107084     
1.38279        0.443846       0.00106134     
1.39067        0.433733       0.0010492      
1.39855        0.425905       0.0010397      
1.40642        0.420833       0.0010337      
1.4143         0.41154        0.00102193     
1.42218        0.404339       0.00101328     
1.43006        0.395214       0.00100172     
1.43794        0.387441       0.000991788    
1.44582        0.381727       0.000984159    
1.4537         0.373617       0.000973879    
1.46158        0.366804       0.000964939    
1.46946        0.359887       0.000955884    
1.47734        0.352338       0.000945742    
1.48522        0.344954       0.000935794    
1.4931         0.33856        0.000927149    
1.50097        0.332065       0.000918114    
1.50885        0.326282       0.000910276    
1.51673        0.320411       0.000901809    
1.52461        0.312885       0.000891309    
1.53249        0.308874       0.00088544     
1.54037        0.300498       0.000873483    
1.54825        0.295413       0.000865779    
1.55613        0.288184       0.000855331    
1.56401        0.282079       0.000846052    
1.57189        0.27783        0.000839835    
1.57977        0.271197       0.000829725    
1.58764        0.266852       0.000822954    
1.59552        0.260244       0.000812838    
1.6034         0.255554       0.000805535    
1.61128        0.250581       0.000797467    
1.61916        0.245197       0.000788845    
1.62704        0.239217       0.000779143    
1.63492        0.234638       0.000771659    
1.6428         0.229541       0.00076332     
1.65068        0.226566       0.000758307    
1.65856        0.221725       0.000750217    
1.66644        0.21628        0.00074092     
1.67432        0.211973       0.00073352     
1.68219        0.208335       0.000727317    
1.69007        0.203066       0.000718066    
1.69795        0.198568       0.000709852    
1.70583        0.19428        0.000702288    
1.71371        0.190435       0.00069526     
1.72159        0.186747       0.000688496    
1.72947        0.183086       0.000681716    
1.73735        0.179142       0.000674344    
1.74523        0.176131       0.000668651    
1.75311        0.170054       0.000656988    
1.76099        0.16714        0.000651429    
1.76886        0.16218        0.000641597    
1.77674        0.160832       0.000638852    
1.78462        0.156771       0.000630854    
1.7925         0.153106       0.000623434    
1.80038        0.149405       0.000615809    
1.80826        0.147199       0.000611246    
1.81614        0.143051       0.000602646    
1.82402        0.141252       0.000598734    
1.8319         0.137337       0.000590441    
1.83978        0.133796       0.000582785    
1.84766        0.131383       0.000577526    
1.85554        0.128712       0.000571628    
1.86341        0.127288       0.000568351    
1.87129        0.123151       0.000559077    
1.87917        0.120917       0.000553993    
1.88705        0.117911       0.000546971    
1.89493        0.114543       0.000539209    
1.90281        0.113546       0.000536872    
1.91069        0.109309       0.000526657    
1.91857        0.107679       0.000522894    
1.92645        0.105123       0.000516588    
1.93433        0.102491       0.000510015    
1.94221        0.0999628      0.000503695    
1.95008        0.098252       0.000499398    
1.95796        0.0971427      0.000496575    
1.96584        0.094282       0.000489207    
1.97372        0.0916675      0.000482413    
1.9816         0.0900125      0.000478072    
1.98948        0.087596       0.000471568    
1.99736        0.0852328      0.000465145    
2.00524        0.0839103      0.000461569    
2.01312        0.0822756      0.000457044    
2.021          0.0808871      0.000453035    
2.02888        0.0784604      0.000446251    
2.03676        0.077077       0.000442304    
2.04463        0.0746555      0.000435323    
2.05251        0.0737315      0.000432699    
2.06039        0.071678       0.000426564    
2.06827        0.0691218      0.000418898    
2.07615        0.06801        0.000415551    
2.08403        0.0675861      0.000414256    
2.09191        0.0654514      0.000407638    
2.09979        0.0639563      0.000402961    
2.10767        0.0629232      0.000399633    
2.11555        0.0604889      0.000391833    
2.12343        0.0597706      0.000389535    
2.1313         0.0586994      0.000385966    
2.13918        0.0568413      0.000379812    
2.14706        0.0553386      0.000374779    
2.15494        0.0538587      0.000369738    
2.16282        0.0519778      0.000363247    
2.1707         0.051526       0.000361648    
2.17858        0.0501705      0.0003569      
2.18646        0.0488277      0.000352078    
2.19434        0.0481144      0.000349462    
2.20222        0.0464899      0.000343535    
2.2101         0.0461574      0.000342324    
2.21798        0.0442663      0.000335225    
2.22585        0.044312       0.000335398    
2.23373        0.0425808      0.000328747    
2.24161        0.0415833      0.000324915    
2.24949        0.0408065      0.000321869    
2.25737        0.0394993      0.000316594    
2.26525        0.0380321      0.000310743    
2.27313        0.0379052      0.000310142    
2.28101        0.0370929      0.000306823    
2.28889        0.0360522      0.000302511    
2.29677        0.0349861      0.000298029    
2.30465        0.0344759      0.000295784    
2.31252        0.0338185      0.000292973    
2.3204         0.0323132      0.000286404    
2.32828        0.0320695      0.000285277    
2.33616        0.0310517      0.000280738    
2.34404        0.0308384      0.000279796    
2.35192        0.0295921      0.000274063    
2.3598         0.0289651      0.00027124     
2.36768        0.0287392      0.000270086    
2.37556        0.0279879      0.000266582    
2.38344        0.0269167      0.000261361    
2.39132        0.0265055      0.000259382    
2.3992         0.0257922      0.00025587     
2.40707        0.0251144      0.000252487    
2.41495        0.0245636      0.000249678    
2.42283        0.0237285      0.000245398    
2.43071        0.0233604      0.000243514    
2.43859        0.0226548      0.000239809    
2.44647        0.0223197      0.000238003    
2.45435        0.0216851      0.000234651    
2.46223        0.0215075      0.00023366     
2.47011        0.0210556      0.000231166    
2.47799        0.020416       0.000227628    
2.48587        0.0196849      0.000223516    
2.49374        0.0195885      0.000222968    
2.50162        0.0188879      0.000218945    
2.5095         0.0183472      0.000215789    
2.51738        0.0178243      0.000212692    
2.52526        0.0174106      0.00021024     
2.53314        0.0173217      0.000209673    
2.54102        0.0167455      0.000206187    
2.5489         0.0162556      0.000203119    
2.55678        0.0153951      0.00019767     
2.56466        0.0154002      0.000197703    
2.57254        0.0149458      0.000194798    
2.58042        0.0146209      0.00019267     
2.58829        0.0140929      0.000189126    
2.59617        0.0139355      0.000188102    
2.60405        0.0137807      0.00018702     
2.61193        0.0131918      0.000183016    
2.61981        0.0130776      0.000182222    
2.62769        0.0124582      0.000177821    
2.63557        0.0122222      0.000176128    
2.64345        0.0115647      0.000171326    
2.65133        0.0117069      0.000172376    
2.65921        0.0116815      0.000172189    
2.66709        0.0111332      0.0001681      
2.67496        0.010854       0.000165979    
2.68284        0.0108185      0.000165707    
2.69072        0.0106458      0.00016438     
2.6986         0.00990211     0.000158534    
2.70648        0.00966858     0.000156654    
2.71436        0.00990972     0.000158595    
2.72224        0.00936144     0.000154146    
2.73012        0.00935636     0.000154104    
2.738          0.00892484     0.000150508    
2.74588        0.00863293     0.000148027    
2.75376        0.00836133     0.00014568     
2.76164        0.00828264     0.000144993    
2.76951        0.00792473     0.000141826    
2.77739        0.00773943     0.000140204    
2.78527        0.00741706     0.000137208    
2.79315        0.00742468     0.000137278    
2.80103        0.00747037     0.000137747    
2.80891        0.00724192     0.000135578    
2.81679        0.00677486     0.000131134    
2.82467        0.00672917     0.000130691    
2.83255        0.00678501     0.000131232    
2.84043        0.00640426     0.000127497    
2.84831        0.00618342     0.000125279    
2.85618        0.00614535     0.000124893    
2.86406        0.00602351     0.000123649    
2.87194        0.0057646      0.000120962    
2.87982        0.00575952     0.000120909    
2.8877         0.0054143      0.00011723     
2.89558        0.00533561     0.000116375    
2.90346        0.00527469     0.000115709    
2.91134        0.00520362     0.000114926    
2.91922        0.00485587     0.00011102     
2.9271         0.00485333     0.000110991    
2.93498        0.00467818     0.00010897     
2.94286        0.00444211     0.000106185    
2.95073        0.00445734     0.000106367    
2.95861        0.00426443     0.00010404     
2.96649        0.00427205     0.000104133    
2.97437        0.00411467     0.000102197    
2.98225        0.00402329     0.000101055    
2.99013        0.00408167     0.000101786    
2.99801        0.00387352     9.91568e-05    
3.00589        0.00384053     9.87335e-05    
3.01377        0.00361715     9.58193e-05    
3.02165        0.00368569     9.67228e-05    
3.02953        0.00340901     9.30216e-05    
3.0374         0.00328716     9.13442e-05    
3.04528        0.00318309     8.98866e-05    
3.05316        0.00310187     8.87324e-05    
3.06104        0.00302064     8.75629e-05    
3.06892        0.0031044      8.87687e-05    
3.0768         0.00307141     8.82956e-05    
3.08468        0.00283534     8.48347e-05    
3.09256        0.00289372     8.57036e-05    
3.10044        0.0027668      8.38031e-05    
3.10832        0.00271604     8.30308e-05    
3.1162         0.00258912     8.10676e-05    
3.12408        0.00254343     8.03491e-05    
3.13195        0.00255866     8.05893e-05    
3.13983        0.00232259     7.67818e-05    
3.14771        0.00233021     7.69076e-05    
3.15559        0.00222613     7.51705e-05    
3.16347        0.00217283     7.42651e-05    
3.17135        0.00235051     7.72419e-05    
3.17923        0.00213475     7.36116e-05    
3.18711        0.00217029     7.42217e-05    
3.19499        0.00198245     7.09372e-05    
3.20287        0.00205353     7.21976e-05    
3.21075        0.00193169     7.0023e-05     
3.21862        0.00189615     6.93759e-05    
3.2265         0.00194438     7.02527e-05    
3.23438        0.00180477     6.76836e-05    
3.24226        0.001688       6.54575e-05    
3.25014        0.00171085     6.5899e-05     
3.25802        0.00162708     6.42655e-05    
3.2659         0.00154839     6.26923e-05    
3.27378        0.00158647     6.34584e-05    
3.28166        0.00149509     6.16037e-05    
3.28954        0.00147224     6.11312e-05    
3.29742        0.00142909     6.02287e-05    
3.3053         0.00134025     5.83266e-05    
3.31317        0.00144178     6.04956e-05    
3.32105        0.00141386     5.99069e-05    
3.32893        0.00126156     5.65884e-05    
3.33681        0.00127679     5.6929e-05     
3.34469        0.00118541     5.4854e-05     
3.35257        0.00111434     5.31841e-05    
3.36045        0.00112957     5.35463e-05    
3.36833        0.00120318     5.52636e-05    
3.37621        0.00113718     5.37265e-05    
3.38409        0.00112195     5.33655e-05    
3.39197        0.00108641     5.25136e-05    
3.39984        0.00100265     5.04485e-05    
3.40772        0.00104834     5.15852e-05    
