p (GeV)        dN/dp          error          
0.00293827     9.86975e-05    1.83277e-05    
0.00881482     0.000598992    4.51506e-05    
0.0146914      0.00156555     7.29936e-05    
0.0205679      0.00340676     0.000107676    
0.0264444      0.00519693     0.000132991    
0.032321       0.00817147     0.000166761    
0.0381975      0.0114013      0.000196977    
0.0440741      0.0152505      0.000227812    
0.0499506      0.0190792      0.000254806    
0.0558272      0.0245518      0.000289085    
0.0617037      0.0296739      0.000317763    
0.0675803      0.0354222      0.000347173    
0.0734568      0.0417252      0.000376883    
0.0793333      0.0479363      0.000403912    
0.0852099      0.0562712      0.000437653    
0.0910864      0.0635442      0.000465029    
0.096963       0.071668       0.000493864    
0.10284        0.0814118      0.00052634     
0.108716       0.0896003      0.000552238    
0.114593       0.100066       0.000583522    
0.120469       0.11047        0.000613152    
0.126346       0.120768       0.00064115     
0.132222       0.131455       0.000668993    
0.138099       0.142509       0.000696451    
0.143975       0.155156       0.000726643    
0.149852       0.167098       0.000754102    
0.155728       0.179555       0.000781872    
0.161605       0.193239       0.000810861    
0.167482       0.207159       0.000839692    
0.173358       0.220065       0.000865333    
0.179235       0.235077       0.000894499    
0.185111       0.247874       0.000918289    
0.190988       0.264268       0.000948301    
0.196864       0.277568       0.00097192     
0.202741       0.293387       0.000999107    
0.208617       0.309287       0.00102596     
0.214494       0.325242       0.00105199     
0.22037        0.341255       0.00107793     
0.226247       0.358762       0.0011049      
0.232123       0.375411       0.00113044     
0.238          0.390117       0.00115229     
0.243877       0.408628       0.00117931     
0.249753       0.423773       0.001201       
0.25563        0.442951       0.00122801     
0.261506       0.457214       0.00124745     
0.267383       0.475398       0.001272       
0.273259       0.495703       0.00129873     
0.279136       0.516106       0.00132537     
0.285012       0.534307       0.00134846     
0.290889       0.549163       0.00136715     
0.296765       0.568729       0.00139149     
0.302642       0.584531       0.00141055     
0.308519       0.601146       0.00143045     
0.314395       0.620086       0.00145275     
0.320272       0.640206       0.00147588     
0.326148       0.657329       0.00149553     
0.332025       0.67716        0.0015181      
0.337901       0.696076       0.00153938     
0.343778       0.71104        0.00155552     
0.349654       0.732699       0.00157901     
0.355531       0.748089       0.00159552     
0.361407       0.768833       0.0016179      
0.367284       0.78604        0.00163566     
0.373161       0.802693       0.00165303     
0.379037       0.819822       0.00167039     
0.384914       0.841913       0.00169257     
0.39079        0.860625       0.00171126     
0.396667       0.874681       0.00172534     
0.402543       0.89198        0.00174212     
0.40842        0.908306       0.00175797     
0.414296       0.925156       0.00177445     
0.420173       0.942976       0.00179139     
0.426049       0.95614        0.00180391     
0.431926       0.975386       0.00182205     
0.437803       0.988074       0.00183373     
0.443679       1.00482        0.00184931     
0.449556       1.02331        0.001866       
0.455432       1.03835        0.00187985     
0.461309       1.05504        0.00189493     
0.467185       1.06942        0.00190786     
0.473062       1.08365        0.00192022     
0.478938       1.10145        0.00193638     
0.484815       1.1118         0.00194483     
0.490691       1.12703        0.00195862     
0.496568       1.14066        0.00197085     
0.502445       1.15462        0.00198251     
0.508321       1.16647        0.00199257     
0.514198       1.18197        0.00200576     
0.520074       1.19334        0.00201526     
0.525951       1.20583        0.00202567     
0.531827       1.22021        0.00203797     
0.537704       1.23068        0.00204661     
0.54358        1.24408        0.00205768     
0.549457       1.25           0.00206268     
0.555333       1.26664        0.00207651     
0.56121        1.277          0.00208503     
0.567086       1.28604        0.00209235     
0.572963       1.29755        0.00210136     
0.57884        1.30523        0.00210774     
0.584716       1.31184        0.0021131      
0.590593       1.32548        0.00212427     
0.596469       1.33456        0.0021315      
0.602346       1.34231        0.00213749     
0.608222       1.34668        0.00214073     
0.614099       1.35872        0.00215032     
0.619975       1.36412        0.00215474     
0.625852       1.37197        0.00216052     
0.631728       1.37908        0.00216628     
0.637605       1.38594        0.00217161     
0.643482       1.39099        0.00217599     
0.649358       1.39934        0.00218221     
0.655235       1.40397        0.0021854      
0.661111       1.40707        0.0021884      
0.666988       1.41271        0.00219234     
0.672864       1.41876        0.00219733     
0.678741       1.42189        0.00219985     
0.684617       1.42603        0.00220298     
0.690494       1.42914        0.00220508     
0.69637        1.43408        0.00220952     
0.702247       1.43987        0.00221359     
0.708124       1.43775        0.00221224     
0.714          1.44064        0.00221414     
0.719877       1.44357        0.00221639     
0.725753       1.44925        0.00222115     
0.73163        1.44918        0.00222094     
0.737506       1.44909        0.00222083     
0.743383       1.45012        0.00222178     
0.749259       1.45277        0.00222379     
0.755136       1.45431        0.00222508     
0.761012       1.44974        0.00222115     
0.766889       1.45172        0.0022226      
0.772766       1.45364        0.00222421     
0.778642       1.45206        0.00222322     
0.784519       1.44809        0.00222036     
0.790395       1.45365        0.00222401     
0.796272       1.44935        0.00222115     
0.802148       1.44465        0.0022174      
0.808025       1.44876        0.00222065     
0.813901       1.43765        0.00221197     
0.819778       1.44161        0.00221488     
0.825654       1.44119        0.00221488     
0.831531       1.43202        0.00220778     
0.837408       1.4313         0.00220681     
0.843284       1.42651        0.00220328     
0.849161       1.41894        0.00219779     
0.855037       1.41865        0.00219716     
0.860914       1.41753        0.00219637     
0.86679        1.41539        0.00219473     
0.872667       1.4094         0.00219013     
0.878543       1.40763        0.00218853     
0.88442        1.4028         0.00218474     
0.890296       1.39631        0.00218001     
0.896173       1.39367        0.00217765     
0.90205        1.38019        0.00216713     
0.907926       1.37635        0.00216467     
0.913803       1.37502        0.0021635      
0.919679       1.37121        0.00216016     
0.925556       1.36571        0.00215647     
0.931432       1.35889        0.0021506      
0.937309       1.34926        0.00214282     
0.943185       1.34352        0.00213825     
0.949062       1.33845        0.00213385     
0.954938       1.33034        0.00212759     
0.960815       1.32978        0.00212745     
0.966691       1.32432        0.00212286     
0.972568       1.31044        0.00211198     
0.978445       1.30453        0.00210748     
0.984321       1.2993         0.00210269     
0.990198       1.29287        0.00209785     
0.996074       1.28376        0.00209034     
1.00195        1.2781         0.00208563     
1.00783        1.26969        0.00207857     
1.0137         1.26373        0.00207418     
1.01958        1.25298        0.00206497     
1.02546        1.24827        0.0020613      
1.03133        1.2382         0.00205303     
1.03721        1.23014        0.00204639     
1.04309        1.22209        0.00203939     
1.04896        1.21537        0.00203398     
1.05484        1.2071         0.00202666     
1.06072        1.19481        0.00201663     
1.06659        1.18887        0.00201154     
1.07247        1.18055        0.00200442     
1.07835        1.17417        0.00199893     
1.08422        1.16486        0.00199107     
1.0901         1.15363        0.00198138     
1.09598        1.14604        0.00197493     
1.10185        1.14103        0.00197072     
1.10773        1.12951        0.00196022     
1.11361        1.12331        0.00195512     
1.11948        1.11494        0.00194836     
1.12536        1.10512        0.0019392      
1.13123        1.09199        0.0019281      
1.13711        1.08627        0.00192275     
1.14299        1.07861        0.0019158      
1.14886        1.06844        0.0019067      
1.15474        1.06318        0.00190208     
1.16062        1.05103        0.00189147     
1.16649        1.04197        0.00188302     
1.17237        1.0316         0.00187369     
1.17825        1.02741        0.00187014     
1.18412        1.0181         0.00186115     
1.19           1.00493        0.00184962     
1.19588        0.998022       0.00184329     
1.20175        0.990518       0.00183639     
1.20763        0.978245       0.00182464     
1.21351        0.9717         0.00181869     
1.21938        0.962379       0.00180963     
1.22526        0.949088       0.00179684     
1.23114        0.944586       0.00179321     
1.23701        0.937309       0.00178612     
1.24289        0.926116       0.00177542     
1.24877        0.918394       0.0017679      
1.25464        0.907295       0.00175715     
1.26052        0.903102       0.00175293     
1.2664         0.891316       0.00174174     
1.27227        0.882165       0.00173236     
1.27815        0.870852       0.00172151     
1.28402        0.865005       0.00171573     
1.2899         0.857307       0.00170802     
1.29578        0.844418       0.00169506     
1.30165        0.840773       0.0016913      
1.30753        0.832683       0.00168339     
1.31341        0.82086        0.00167132     
1.31928        0.812297       0.00166261     
1.32516        0.803431       0.0016537      
1.33104        0.797047       0.00164712     
1.33691        0.788593       0.00163785     
1.34279        0.780176       0.00162984     
1.34867        0.769728       0.00161841     
1.35454        0.763452       0.00161173     
1.36042        0.753974       0.00160168     
1.3663         0.747395       0.00159489     
1.37217        0.738679       0.00158532     
1.37805        0.732284       0.00157844     
1.38393        0.723013       0.00156845     
1.3898         0.715574       0.00156067     
1.39568        0.707338       0.00155178     
1.40156        0.697471       0.00154068     
1.40743        0.687829       0.00153008     
1.41331        0.682636       0.0015241      
1.41919        0.675836       0.00151676     
1.42506        0.668379       0.00150812     
1.43094        0.656056       0.00149423     
1.43682        0.650454       0.00148786     
1.44269        0.641731       0.00147761     
1.44857        0.634002       0.0014688      
1.45444        0.626525       0.00146007     
1.46032        0.620729       0.00145341     
1.4662         0.612159       0.00144337     
1.47207        0.606176       0.00143639     
1.47795        0.598951       0.00142754     
1.48383        0.593781       0.00142144     
1.4897         0.584558       0.00141037     
1.49558        0.577578       0.00140211     
1.50146        0.56929        0.00139207     
1.50733        0.56391        0.00138564     
1.51321        0.557307       0.00137709     
1.51909        0.55129        0.0013697      
1.52496        0.544293       0.00136095     
1.53084        0.536519       0.00135144     
1.53672        0.529488       0.0013425      
1.54259        0.523726       0.00133536     
1.54847        0.519625       0.00132993     
1.55435        0.509871       0.00131738     
1.56022        0.504484       0.00131044     
1.5661         0.496819       0.00130024     
1.57198        0.493712       0.00129608     
1.57785        0.48454        0.00128418     
1.58373        0.478979       0.0012769      
1.58961        0.473183       0.00126904     
1.59548        0.465706       0.0012589      
1.60136        0.462023       0.00125416     
1.60723        0.456595       0.00124658     
1.61311        0.450139       0.00123779     
1.61899        0.444465       0.00123007     
1.62486        0.43691        0.00121927     
1.63074        0.432326       0.00121319     
1.63662        0.426237       0.00120427     
1.64249        0.420577       0.00119629     
1.64837        0.413988       0.0011872      
1.65425        0.410367       0.00118182     
1.66012        0.404986       0.00117409     
1.666          0.398619       0.00116504     
1.67188        0.392918       0.00115612     
1.67775        0.388943       0.00115048     
1.68363        0.383089       0.00114197     
1.68951        0.378495       0.00113514     
1.69538        0.373332       0.00112727     
1.70126        0.366736       0.00111702     
1.70714        0.364115       0.00111328     
1.71301        0.357925       0.00110389     
1.71889        0.354327       0.00109817     
1.72477        0.347687       0.00108758     
1.73064        0.344328       0.00108248     
1.73652        0.338556       0.00107339     
1.7424         0.333924       0.00106602     
1.74827        0.328428       0.00105716     
1.75415        0.325647       0.00105264     
1.76002        0.320651       0.00104462     
1.7659         0.315498       0.0010362      
1.77178        0.313041       0.00103201     
1.77765        0.307422       0.00102276     
1.78353        0.301698       0.00101336     
1.78941        0.298716       0.00100816     
1.79528        0.2945         0.00100109     
1.80116        0.290004       0.0009935      
1.80704        0.28495        0.000984788    
1.81291        0.281451       0.000978886    
1.81879        0.277585       0.000972021    
1.82467        0.274134       0.000965945    
1.83054        0.272681       0.000963413    
1.83642        0.265231       0.000950181    
1.8423         0.261902       0.00094406     
1.84817        0.258567       0.000937912    
1.85405        0.25354        0.000929024    
1.85993        0.250225       0.000922737    
1.8658         0.247768       0.000918359    
1.87168        0.244109       0.000911485    
1.87756        0.238906       0.000901694    
1.88343        0.236197       0.000896582    
1.88931        0.232889       0.000890298    
1.89519        0.230972       0.000886547    
1.90106        0.226392       0.000877694    
1.90694        0.222553       0.000870399    
1.91282        0.219051       0.000863449    
1.91869        0.217243       0.00085993     
1.92457        0.213387       0.000852189    
1.93044        0.209616       0.0008447      
1.93632        0.208718       0.000842865    
1.9422         0.203919       0.000833019    
1.94807        0.199304       0.000823518    
1.95395        0.198749       0.000822571    
1.95983        0.195472       0.000815508    
1.9657         0.192188       0.000808713    
1.97158        0.189019       0.000802063    
1.97746        0.185905       0.000795487    
1.98333        0.183186       0.000789573    
1.98921        0.18127        0.000785382    
1.99509        0.178159       0.000778732    
2.00096        0.174337       0.000770352    
2.00684        0.173023       0.0007673      
2.01272        0.169923       0.000760422    
2.01859        0.166921       0.00075378     
2.02447        0.166043       0.000751753    
2.03035        0.161738       0.000741838    
2.03622        0.159716       0.000737273    
2.0421         0.15731        0.000731725    
2.04798        0.154727       0.000725688    
2.05385        0.152838       0.000721317    
2.05973        0.148492       0.000710862    
2.06561        0.147982       0.000709853    
2.07148        0.145871       0.000704638    
2.07736        0.143367       0.000698456    
2.08323        0.142107       0.000695337    
2.08911        0.138925       0.000687603    
2.09499        0.137407       0.000683842    
2.10086        0.134358       0.000676172    
2.10674        0.132074       0.000670444    
2.11262        0.13024        0.000665727    
2.11849        0.12815        0.000660512    
2.12437        0.125152       0.000652647    
2.13025        0.124423       0.000650694    
2.13612        0.121241       0.000642331    
2.142          0.121769       0.000643725    
2.14788        0.117926       0.000633592    
2.15375        0.11696        0.000630903    
2.15963        0.116358       0.000629407    
2.16551        0.112583       0.00061902     
2.17138        0.111593       0.000616239    
2.17726        0.109493       0.000610572    
2.18314        0.107808       0.000605712    
2.18901        0.106998       0.000603473    
2.19489        0.104218       0.000595513    
2.20077        0.102741       0.000591302    
2.20664        0.100576       0.000585047    
2.21252        0.099208       0.000581019    
2.2184         0.0971898      0.000575104    
2.22427        0.0964308      0.000572877    
2.23015        0.0941778      0.000566214    
2.23602        0.0927076      0.00056168     
2.2419         0.0928267      0.000562082    
2.24778        0.0899202      0.000553222    
2.25365        0.0893484      0.000551399    
2.25953        0.0880586      0.000547387    
2.26541        0.0853359      0.000538887    
2.27128        0.0854516      0.00053923     
2.27716        0.0837397      0.000533849    
2.28304        0.0814765      0.000526593    
2.28891        0.08165        0.000527109    
2.29479        0.0794515      0.000519947    
2.30067        0.0781718      0.000515836    
2.30654        0.0764327      0.000510004    
2.31242        0.0750237      0.000505262    
2.3183         0.074908       0.000504849    
2.32417        0.0727707      0.000497693    
2.33005        0.0716748      0.000493935    
2.33593        0.0695205      0.000486438    
2.3418         0.0697383      0.000487152    
2.34768        0.0686424      0.00048336     
2.35356        0.0675397      0.000479392    
2.35943        0.0666038      0.000476134    
2.36531        0.0652594      0.000471358    
2.37119        0.0639117      0.000466372    
2.37706        0.0625912      0.000461507    
2.38294        0.0617404      0.000458386    
2.38882        0.060784       0.00045485     
2.39469        0.059501       0.000449951    
2.40057        0.0580069      0.00044432     
2.40644        0.0572445      0.000441393    
2.41232        0.0562167      0.000437336    
2.4182         0.0558798      0.00043613     
2.42407        0.0546273      0.000431192    
2.42995        0.0538446      0.000428093    
2.43583        0.0536608      0.00042739     
2.4417         0.0526194      0.000423171    
2.44758        0.0514997      0.000418675    
2.45346        0.0501213      0.00041301     
2.45933        0.0499545      0.000412322    
2.46521        0.0485319      0.000406412    
2.47109        0.0476777      0.00040285     
2.47696        0.0470208      0.000399981    
2.48284        0.0472114      0.00040079     
2.48872        0.0461223      0.0003962      
2.49459        0.0448427      0.000390698    
2.50047        0.0445976      0.000389541    
2.50635        0.0427666      0.000381493    
2.51222        0.0423991      0.000379851    
2.5181         0.0421302      0.000378614    
2.52398        0.0409731      0.000373411    
2.52985        0.0405783      0.000371639    
2.53573        0.0402481      0.000370094    
2.54161        0.0386213      0.000362509    
