p (GeV)        dN/dp          error          
0.00293956     6.80373e-05    2.40548e-05    
0.00881869     0.000637849    7.36524e-05    
0.0146978      0.00204962     0.000132027    
0.020577       0.00409074     0.00018652     
0.0264561      0.00677821     0.000240092    
0.0323352      0.00983139     0.00028915     
0.0382143      0.0132077      0.000335355    
0.0440935      0.0172049      0.000382501    
0.0499726      0.0222652      0.000435124    
0.0558517      0.0286097      0.000493229    
0.0617309      0.0337805      0.000536078    
0.06761        0.0415963      0.000594828    
0.0734891      0.0488508      0.000644469    
0.0793683      0.0561988      0.000691226    
0.0852474      0.0638105      0.000736731    
0.0911265      0.0727574      0.000786455    
0.0970056      0.0846384      0.000848382    
0.102885       0.0944102      0.000896055    
0.108764       0.105398       0.000946707    
0.114643       0.117007       0.000997642    
0.120522       0.128004       0.00104319     
0.126401       0.140744       0.00109394     
0.13228        0.151987       0.00113648     
0.13816        0.164727       0.00118353     
0.144039       0.183003       0.0012474      
0.149918       0.190258       0.00127184     
0.155797       0.209198       0.00133373     
0.161676       0.223545       0.00137908     
0.167555       0.234958       0.00141338     
0.173434       0.252878       0.0014665      
0.179313       0.27095        0.00151789     
0.185193       0.290009       0.00157025     
0.191072       0.304824       0.00161037     
0.196951       0.322522       0.00165605     
0.20283        0.340476       0.0017014      
0.208709       0.361108       0.00175245     
0.214588       0.377964       0.00179312     
0.220467       0.396113       0.00183522     
0.226347       0.414798       0.00187859     
0.232226       0.430633       0.00191388     
0.238105       0.450296       0.00195649     
0.243984       0.471481       0.00200274     
0.249863       0.489367       0.00203987     
0.255742       0.509871       0.00208262     
0.261621       0.532672       0.00212829     
0.2675         0.552191       0.00216692     
0.27338        0.571147       0.00220396     
0.279259       0.590649       0.0022406      
0.285138       0.613713       0.00228473     
0.291017       0.629515       0.0023138      
0.296896       0.652801       0.00235598     
0.302775       0.676622       0.00239914     
0.308654       0.695528       0.00243256     
0.314533       0.721722       0.00247706     
0.320413       0.739939       0.00250885     
0.326292       0.763667       0.0025496      
0.332171       0.776833       0.00257084     
0.33805        0.801394       0.00260973     
0.343929       0.829187       0.00265518     
0.349808       0.84544        0.00268115     
0.355687       0.869074       0.00271894     
0.361566       0.882843       0.00274014     
0.367446       0.905933       0.00277576     
0.373325       0.926753       0.00280721     
0.379204       0.945761       0.00283626     
0.385083       0.974532       0.00287884     
0.390962       0.990572       0.00290331     
0.396841       1.01075        0.00293166     
0.40272        1.03195        0.00296303     
0.4086         1.05017        0.00298829     
0.414479       1.07047        0.0030174      
0.420358       1.08551        0.00303849     
0.426237       1.10502        0.00306657     
0.432116       1.13098        0.00310102     
0.437995       1.14171        0.00311577     
0.443874       1.16366        0.00314661     
0.449753       1.18106        0.00316933     
0.455633       1.20302        0.003198       
0.461512       1.21774        0.00321784     
0.467391       1.2352         0.00324035     
0.47327        1.25376        0.00326556     
0.479149       1.27034        0.00328765     
0.485028       1.288          0.00331002     
0.490907       1.30755        0.00333445     
0.496786       1.32039        0.00335118     
0.502666       1.33325        0.00336789     
0.508545       1.35269        0.00339241     
0.514424       1.36029        0.00340111     
0.520303       1.3823         0.00342863     
0.526182       1.39277        0.00344259     
0.532061       1.4129         0.00346614     
0.53794        1.42867        0.00348606     
0.54382        1.43863        0.00349838     
0.549699       1.4498         0.00351157     
0.555578       1.46889        0.00353373     
0.561457       1.47564        0.00354301     
0.567336       1.48667        0.00355597     
0.573215       1.4987         0.00356967     
0.579094       1.51132        0.00358602     
0.584973       1.52462        0.00359989     
0.590853       1.53294        0.00361081     
0.596732       1.54077        0.0036206      
0.602611       1.54997        0.00363027     
0.60849        1.56248        0.00364523     
0.614369       1.57385        0.00365921     
0.620248       1.58216        0.0036683      
0.626127       1.59572        0.00368424     
0.632006       1.59555        0.00368281     
0.637886       1.61236        0.00370391     
0.643765       1.61648        0.0037067      
0.649644       1.62117        0.00371388     
0.655523       1.62597        0.00371912     
0.661402       1.63317        0.00372722     
0.667281       1.63778        0.0037315      
0.67316        1.64793        0.00374389     
0.67904        1.64944        0.00374414     
0.684919       1.65378        0.0037511      
0.690798       1.66305        0.00376056     
0.696677       1.66942        0.00376836     
0.702556       1.67076        0.0037693      
0.708435       1.67878        0.00377801     
0.714314       1.67912        0.00377971     
0.720193       1.67691        0.00377493     
0.726073       1.67863        0.00377854     
0.731952       1.67986        0.00377983     
0.737831       1.6858         0.00378659     
0.74371        1.68857        0.00378983     
0.749589       1.6903         0.00379187     
0.755468       1.68826        0.00378985     
0.761347       1.69308        0.00379523     
0.767226       1.69448        0.00379581     
0.773106       1.68408        0.00378451     
0.778985       1.68774        0.00378823     
0.784864       1.68353        0.00378329     
0.790743       1.68999        0.00379155     
0.796622       1.68851        0.00378881     
0.802501       1.68294        0.0037829      
0.80838        1.67419        0.00377211     
0.81426        1.66941        0.00376728     
0.820139       1.67351        0.00377319     
0.826018       1.6731         0.00377202     
0.831897       1.67362        0.00377211     
0.837776       1.67332        0.00377323     
0.843655       1.66934        0.0037685      
0.849534       1.65755        0.00375382     
0.855413       1.65694        0.00375509     
0.861293       1.65211        0.00374833     
0.867172       1.65575        0.00375236     
0.873051       1.64538        0.00373954     
0.87893        1.63812        0.00373312     
0.884809       1.6292         0.00372255     
0.890688       1.63749        0.0037323      
0.896567       1.62383        0.00371654     
0.902446       1.62086        0.00371291     
0.908326       1.61629        0.00370758     
0.914205       1.61026        0.00370109     
0.920084       1.60581        0.00369606     
0.925963       1.59097        0.00367935     
0.931842       1.58462        0.00367173     
0.937721       1.5833         0.00366943     
0.9436         1.57602        0.00365996     
0.949479       1.56479        0.00364791     
0.955359       1.55736        0.00364008     
0.961238       1.55742        0.00363947     
0.967117       1.54799        0.0036285      
0.972996       1.53425        0.00361279     
0.978875       1.52274        0.0035988      
0.984754       1.51639        0.00359094     
0.990633       1.514          0.00358713     
0.996513       1.50875        0.00358222     
1.00239        1.49988        0.00357207     
1.00827        1.48826        0.0035573      
1.01415        1.48447        0.00355406     
1.02003        1.47374        0.00353995     
1.02591        1.46261        0.00352708     
1.03179        1.45636        0.00351936     
1.03767        1.45033        0.00351238     
1.04355        1.43704        0.00349509     
1.04942        1.42817        0.00348511     
1.0553         1.41573        0.00346996     
1.06118        1.41159        0.00346464     
1.06706        1.4009         0.00345232     
1.07294        1.39317        0.00344187     
1.07882        1.37581        0.0034208      
1.0847         1.36672        0.0034108      
1.09058        1.36447        0.00340699     
1.09646        1.3512         0.00338998     
1.10234        1.34134        0.0033769      
1.10822        1.33207        0.00336578     
1.1141         1.31658        0.00334693     
1.11997        1.30862        0.00333633     
1.12585        1.30026        0.00332646     
1.13173        1.29353        0.0033163      
1.13761        1.27936        0.00329825     
1.14349        1.27479        0.00329256     
1.14937        1.26097        0.00327489     
1.15525        1.25316        0.00326446     
1.16113        1.23619        0.00324281     
1.16701        1.22899        0.00323269     
1.17289        1.22151        0.0032231      
1.17877        1.21053        0.003209       
1.18464        1.20041        0.00319523     
1.19052        1.19441        0.00318774     
1.1964         1.18398        0.00317316     
1.20228        1.16403        0.00314593     
1.20816        1.16047        0.00314183     
1.21404        1.1505         0.00312798     
1.21992        1.13425        0.00310538     
1.2258         1.12989        0.00310014     
1.23168        1.11956        0.00308585     
1.23756        1.1065         0.00306825     
1.24344        1.09843        0.00305643     
1.24932        1.08902        0.00304346     
1.25519        1.07796        0.0030277      
1.26107        1.06589        0.00301061     
1.26695        1.05944        0.00300134     
1.27283        1.04886        0.00298657     
1.27871        1.0363         0.00296841     
1.28459        1.02413        0.00295156     
1.29047        1.01815        0.00294286     
1.29635        1.01287        0.00293499     
1.30223        1.00073        0.00291714     
1.30811        0.9866         0.00289723     
1.31399        0.975765       0.00288034     
1.31986        0.967482       0.00286891     
1.32574        0.957659       0.00285359     
1.33162        0.953202       0.00284714     
1.3375         0.937766       0.00282354     
1.34338        0.927118       0.00280737     
1.34926        0.917661       0.00279312     
1.35514        0.915994       0.00279073     
1.36102        0.898152       0.0027631      
1.3669         0.89128        0.00275388     
1.37278        0.879986       0.00273591     
1.37866        0.872382       0.00272352     
1.38454        0.856853       0.00269984     
1.39041        0.856717       0.00269926     
1.39629        0.84481        0.00268087     
1.40217        0.832904       0.00266123     
1.40805        0.824263       0.00264799     
1.41393        0.815019       0.00263278     
1.41981        0.80426        0.00261485     
1.42569        0.799923       0.00260893     
1.43157        0.791257       0.00259493     
1.43745        0.781876       0.00257904     
1.44333        0.769204       0.00255749     
1.44921        0.763676       0.0025485      
1.45508        0.753113       0.00253006     
1.46096        0.744762       0.00251709     
1.46684        0.73749        0.00250445     
1.47272        0.725813       0.00248407     
1.4786         0.720464       0.00247544     
1.48448        0.711806       0.00246036     
1.49036        0.707111       0.00245218     
1.49624        0.6966         0.00243341     
1.50212        0.688401       0.00241973     
1.508          0.680628       0.00240596     
1.51388        0.669818       0.00238672     
1.51976        0.66088        0.00237147     
1.52563        0.655182       0.0023604      
1.53151        0.649365       0.00235028     
1.53739        0.636089       0.00232523     
1.54327        0.634158       0.00232344     
1.54915        0.618476       0.00229401     
1.55503        0.616112       0.00228937     
1.56091        0.610362       0.00227818     
1.56679        0.600684       0.00225959     
1.57267        0.5961         0.00225172     
1.57855        0.586822       0.00223383     
1.58443        0.5779         0.0022166      
1.5903         0.572074       0.00220564     
1.59618        0.562532       0.00218712     
1.60206        0.556715       0.00217639     
1.60794        0.549869       0.00216249     
1.61382        0.55009        0.00216236     
1.6197         0.53638        0.00213574     
1.62558        0.53172        0.00212677     
1.63146        0.52256        0.00210873     
1.63734        0.514421       0.00209187     
1.64322        0.509182       0.0020815      
1.6491         0.502234       0.00206717     
1.65498        0.494257       0.00205037     
1.66085        0.488338       0.00203759     
1.66673        0.486892       0.00203487     
1.67261        0.476082       0.00201214     
1.67849        0.473999       0.00200783     
1.68437        0.462458       0.00198338     
1.69025        0.455748       0.00196894     
1.69613        0.452176       0.00196103     
1.70201        0.448918       0.00195436     
1.70789        0.438594       0.00193129     
1.71377        0.435115       0.00192384     
1.71965        0.429349       0.00191127     
1.72552        0.424085       0.0018989      
1.7314         0.415044       0.00187833     
1.73728        0.414696       0.00187778     
1.74316        0.408436       0.00186347     
1.74904        0.401386       0.00184731     
1.75492        0.396725       0.00183719     
1.7608         0.391682       0.00182557     
1.76668        0.382939       0.00180466     
1.77256        0.376748       0.00179004     
1.77844        0.372113       0.00177937     
1.78432        0.370199       0.00177481     
1.7902         0.362316       0.00175541     
1.79607        0.359781       0.00174916     
1.80195        0.355563       0.00173929     
1.80783        0.347339       0.00171894     
1.81371        0.343554       0.00170947     
1.81959        0.338843       0.00169767     
1.82547        0.337099       0.0016934      
1.83135        0.329632       0.0016747      
1.83723        0.324249       0.00166064     
1.84311        0.322488       0.00165575     
1.84899        0.317743       0.001644       
1.85487        0.310429       0.00162473     
1.86074        0.307869       0.00161786     
1.86662        0.302936       0.00160485     
1.8725         0.30018        0.00159769     
1.87838        0.295333       0.00158492     
1.88426        0.290579       0.00157184     
1.89014        0.285893       0.00155943     
1.89602        0.282142       0.00154859     
1.9019         0.280484       0.00154447     
1.90778        0.274964       0.00152925     
1.91366        0.270099       0.00151532     
1.91954        0.267021       0.00150693     
1.92542        0.261731       0.00149183     
1.93129        0.260251       0.00148757     
1.93717        0.255335       0.00147369     
1.94305        0.252818       0.00146638     
1.94893        0.247843       0.00145177     
1.95481        0.243948       0.00144025     
1.96069        0.24217        0.00143496     
1.96657        0.237144       0.00142023     
1.97245        0.231284       0.00140237     
1.97833        0.230893       0.00140103     
1.98421        0.228758       0.00139492     
1.99009        0.222856       0.0013767      
1.99596        0.221904       0.00137376     
2.00184        0.217515       0.00136014     
2.00772        0.213552       0.00134783     
2.0136         0.209538       0.00133492     
2.01948        0.207726       0.00132937     
2.02536        0.204027       0.00131702     
2.03124        0.201611       0.00130883     
2.03712        0.197359       0.00129542     
2.043          0.195641       0.00128956     
2.04888        0.195131       0.0012881      
2.05476        0.188582       0.00126629     
2.06064        0.187375       0.00126235     
2.06651        0.181498       0.00124221     
2.07239        0.18075        0.00123959     
2.07827        0.17779        0.00122977     
2.08415        0.174983       0.00122023     
2.09003        0.172058       0.00120947     
2.09591        0.169515       0.00120094     
2.10179        0.17011        0.0012028      
2.10767        0.164795       0.0011839      
2.11355        0.164387       0.00118219     
2.11943        0.160891       0.00116976     
2.12531        0.155822       0.0011509      
2.13118        0.155746       0.00115087     
2.13706        0.155312       0.00114952     
2.14294        0.151094       0.00113371     
2.14882        0.149478       0.00112752     
2.1547         0.144001       0.00110644     
2.16058        0.142249       0.00110023     
2.16646        0.142164       0.00109931     
2.17234        0.140565       0.00109318     
2.17822        0.138958       0.00108712     
2.1841         0.134008       0.00106768     
2.18998        0.134969       0.00107143     
2.19586        0.130487       0.00105373     
2.20173        0.129688       0.00105036     
2.20761        0.127527       0.00104146     
2.21349        0.126328       0.00103642     
2.21937        0.123564       0.00102517     
2.22525        0.122374       0.00102009     
2.23113        0.120324       0.00101138     
2.23701        0.117934       0.00100151     
2.24289        0.115578       0.000991614    
2.24877        0.115204       0.000989572    
2.25465        0.110892       0.000971413    
2.26053        0.109106       0.000963423    
2.2664         0.108613       0.000961096    
2.27228        0.108035       0.000958462    
2.27816        0.105424       0.000946898    
2.28404        0.103867       0.000940122    
2.28992        0.101418       0.000928913    
2.2958         0.0988327      0.000916779    
2.30168        0.0995641      0.000919925    
2.30756        0.096698       0.000906835    
2.31344        0.0949375      0.000898551    
2.31932        0.0932281      0.000890515    
2.3252         0.0920459      0.000884613    
2.33108        0.0917908      0.000883469    
2.33695        0.0876065      0.000863032    
2.34283        0.0887376      0.000868498    
2.34871        0.0867305      0.000858878    
2.35459        0.0853698      0.000852036    
2.36047        0.0833882      0.000842356    
2.36635        0.0826143      0.000838185    
2.37223        0.0818999      0.00083447     
2.37811        0.0791359      0.000820366    
2.38399        0.0783109      0.000815905    
2.38987        0.0780303      0.00081462     
2.39575        0.0759891      0.000803724    
2.40162        0.0753258      0.000800481    
2.4075         0.0751557      0.000799578    
2.41338        0.0729445      0.000787465    
2.41926        0.0700614      0.000771941    
2.42514        0.0704441      0.000774044    
2.43102        0.0687006      0.000764225    
2.4369         0.0688452      0.000765123    
2.44278        0.0668041      0.000754086    
2.44866        0.0653158      0.000745362    
2.45454        0.0652307      0.000744974    
2.46042        0.0631216      0.000732549    
2.4663         0.061982       0.000726108    
2.47217        0.0627729      0.000730821    
2.47805        0.0599493      0.000713911    
2.48393        0.0588267      0.000707198    
2.48981        0.0598643      0.000713405    
2.49569        0.0577807      0.00070109     
2.50157        0.0563859      0.000692584    
2.50745        0.0555269      0.000687189    
2.51333        0.0546254      0.000681591    
2.51921        0.0551357      0.000684659    
2.52509        0.0513256      0.000660587    
2.53097        0.0520485      0.00066533     
2.53684        0.0516828      0.000662881    
2.54272        0.0494121      0.00064816     
