p (GeV)        dN/dp          error          
0.00293827     0.000170168    3.80507e-05    
0.00881482     0.00107206     9.55063e-05    
0.0146914      0.00310557     0.000162551    
0.0205679      0.00601544     0.00022623     
0.0264444      0.00937626     0.00028244     
0.032321       0.0135028      0.000338937    
0.0381975      0.0196119      0.000408468    
0.0440741      0.0266738      0.000476509    
0.0499506      0.0330722      0.000530412    
0.0558272      0.0418613      0.000596729    
0.0617037      0.0513057      0.000660714    
0.0675803      0.0615243      0.000723384    
0.0734568      0.0728234      0.000786985    
0.0793333      0.0849053      0.000849905    
0.0852099      0.0956259      0.000901838    
0.0910864      0.109393       0.000964747    
0.096963       0.125516       0.00103352     
0.10284        0.139819       0.00109065     
0.108716       0.155959       0.00115172     
0.114593       0.171751       0.00120896     
0.120469       0.190869       0.0012745      
0.126346       0.207741       0.00132977     
0.132222       0.229097       0.00139568     
0.138099       0.249534       0.00145702     
0.143975       0.268398       0.00151142     
0.149852       0.288996       0.00156805     
0.155728       0.311033       0.00162662     
0.161605       0.334116       0.00168629     
0.167482       0.355898       0.00174033     
0.173358       0.382104       0.00180286     
0.179235       0.405128       0.00185674     
0.185111       0.432397       0.00191824     
0.190988       0.4536         0.00196476     
0.196864       0.482597       0.00202602     
0.202741       0.508615       0.00207984     
0.208617       0.531273       0.00212591     
0.214494       0.562329       0.00218741     
0.22037        0.58845        0.00223792     
0.226247       0.618663       0.00229433     
0.232123       0.64503        0.00234239     
0.238          0.678018       0.00240236     
0.243877       0.705117       0.0024497      
0.249753       0.735407       0.00250129     
0.25563        0.765024       0.00255178     
0.261506       0.796633       0.00260383     
0.267383       0.823282       0.00264641     
0.273259       0.856881       0.00270062     
0.279136       0.886431       0.00274636     
0.285012       0.917401       0.00279399     
0.290889       0.948874       0.00284181     
0.296765       0.977156       0.00288231     
0.302642       1.01262        0.00293403     
0.308519       1.04084        0.00297576     
0.314395       1.07585        0.00302553     
0.320272       1.10388        0.00306504     
0.326148       1.14443        0.00312029     
0.332025       1.16486        0.0031487      
0.337901       1.20544        0.00320309     
0.343778       1.23505        0.00324099     
0.349654       1.26477        0.00328052     
0.355531       1.297          0.00332082     
0.361407       1.32237        0.0033542      
0.367284       1.35473        0.00339518     
0.373161       1.38876        0.00343668     
0.379037       1.41909        0.00347518     
0.384914       1.44731        0.00350839     
0.39079        1.47722        0.00354524     
0.396667       1.50889        0.00358244     
0.402543       1.54551        0.00362715     
0.40842        1.56624        0.00365113     
0.414296       1.5925         0.0036812      
0.420173       1.62692        0.00371969     
0.426049       1.65931        0.00375727     
0.431926       1.68169        0.00378304     
0.437803       1.71218        0.00381641     
0.443679       1.74444        0.00385289     
0.449556       1.76983        0.00387907     
0.455432       1.7927         0.00390472     
0.461309       1.82871        0.0039442      
0.467185       1.84499        0.00396152     
0.473062       1.88067        0.0040002      
0.478938       1.89537        0.00401615     
0.484815       1.92338        0.00404573     
0.490691       1.94326        0.00406569     
0.496568       1.97972        0.00410376     
0.502445       1.98658        0.00411251     
0.508321       2.02412        0.00415026     
0.514198       2.04479        0.00417118     
0.520074       2.06337        0.0041889      
0.525951       2.08553        0.00421268     
0.531827       2.10722        0.00423421     
0.537704       2.12765        0.00425583     
0.54358        2.14564        0.00427435     
0.549457       2.16576        0.00429261     
0.555333       2.18392        0.00431105     
0.56121        2.20495        0.00433082     
0.567086       2.22288        0.00434977     
0.572963       2.23446        0.00435912     
0.57884        2.24601        0.00437083     
0.584716       2.27176        0.00439756     
0.590593       2.29244        0.00441699     
0.596469       2.30129        0.00442497     
0.602346       2.32322        0.00444523     
0.608222       2.32798        0.00445041     
0.614099       2.34624        0.00446739     
0.619975       2.36054        0.00448293     
0.625852       2.37205        0.00449359     
0.631728       2.38688        0.00450638     
0.637605       2.39884        0.00451784     
0.643482       2.40552        0.00452292     
0.649358       2.4181         0.00453738     
0.655235       2.42346        0.00453973     
0.661111       2.4281         0.00454498     
0.666988       2.44663        0.00456254     
0.672864       2.45104        0.00456515     
0.678741       2.46419        0.00457914     
0.684617       2.45566        0.00457044     
0.690494       2.47452        0.00458892     
0.69637        2.48633        0.00459816     
0.702247       2.48164        0.00459471     
0.708124       2.4857         0.00459933     
0.714          2.49098        0.00460417     
0.719877       2.49623        0.00460881     
0.725753       2.49853        0.00460993     
0.73163        2.49916        0.00461146     
0.737506       2.50587        0.0046177      
0.743383       2.49965        0.00461151     
0.749259       2.51423        0.00462683     
0.755136       2.50892        0.00461858     
0.761012       2.50474        0.00461791     
0.766889       2.50649        0.00461835     
0.772766       2.51034        0.00462159     
0.778642       2.50298        0.00461457     
0.784519       2.50318        0.00461492     
0.790395       2.51049        0.00462197     
0.796272       2.49613        0.00460843     
0.802148       2.49751        0.00461082     
0.808025       2.49002        0.00460304     
0.813901       2.4944         0.00460596     
0.819778       2.4922         0.00460453     
0.825654       2.48417        0.00459774     
0.831531       2.48227        0.00459482     
0.837408       2.47316        0.00458729     
0.843284       2.46517        0.00457969     
0.849161       2.46902        0.00458528     
0.855037       2.46408        0.00457854     
0.860914       2.44736        0.00456356     
0.86679        2.44061        0.00455735     
0.872667       2.44362        0.00455886     
0.878543       2.42946        0.00454611     
0.88442        2.41804        0.00453482     
0.890296       2.41018        0.00452861     
0.896173       2.40746        0.00452482     
0.90205        2.40045        0.00451942     
0.907926       2.38238        0.00450247     
0.913803       2.37198        0.00449167     
0.919679       2.36671        0.00448689     
0.925556       2.3552         0.00447626     
0.931432       2.34096        0.00446377     
0.937309       2.34037        0.00446268     
0.943185       2.31863        0.00444158     
0.949062       2.31434        0.00443756     
0.954938       2.30117        0.00442404     
0.960815       2.29289        0.00441705     
0.966691       2.28586        0.00440957     
0.972568       2.27356        0.0043986      
0.978445       2.2547         0.00437982     
0.984321       2.24872        0.00437543     
0.990198       2.23044        0.00435595     
0.996074       2.20936        0.00433517     
1.00195        2.20598        0.00433246     
1.00783        2.18705        0.00431334     
1.0137         2.17681        0.00430341     
1.01958        2.17031        0.00429625     
1.02546        2.16235        0.00428938     
1.03133        2.13843        0.00426552     
1.03721        2.11946        0.00424674     
1.04309        2.11599        0.00424259     
1.04896        2.09504        0.00422154     
1.05484        2.0779         0.00420522     
1.06072        2.07243        0.00419967     
1.06659        2.05965        0.00418661     
1.07247        2.04508        0.00417132     
1.07835        2.03578        0.00416147     
1.08422        2.01432        0.00413866     
1.0901         1.99539        0.00412028     
1.09598        1.98146        0.0041069      
1.10185        1.97663        0.00410086     
1.10773        1.94719        0.00407033     
1.11361        1.93096        0.00405437     
1.11948        1.92032        0.00404315     
1.12536        1.89922        0.00401951     
1.13123        1.89157        0.00401206     
1.13711        1.87302        0.00399202     
1.14299        1.86264        0.00398115     
1.14886        1.84871        0.00396589     
1.15474        1.83435        0.00395101     
1.16062        1.81964        0.00393426     
1.16649        1.80091        0.00391468     
1.17237        1.78329        0.00389484     
1.17825        1.77461        0.00388636     
1.18412        1.75348        0.00386259     
1.19           1.73574        0.00384316     
1.19588        1.71768        0.00382245     
1.20175        1.7043         0.00380756     
1.20763        1.68734        0.00378857     
1.21351        1.67322        0.00377226     
1.21938        1.66121        0.00375916     
1.22526        1.64854        0.00374566     
1.23114        1.63714        0.00373293     
1.23701        1.61682        0.00370916     
1.24289        1.60237        0.00369265     
1.24877        1.585          0.00367305     
1.25464        1.56249        0.00364484     
1.26052        1.55409        0.00363685     
1.2664         1.5478         0.00362817     
1.27227        1.52041        0.00359601     
1.27815        1.51135        0.00358611     
1.28402        1.49301        0.00356399     
1.2899         1.48347        0.00355287     
1.29578        1.4667         0.00353281     
1.30165        1.45349        0.00351652     
1.30753        1.42899        0.00348755     
1.31341        1.42172        0.00347889     
1.31928        1.40658        0.00345942     
1.32516        1.39243        0.00344321     
1.33104        1.38307        0.00342997     
1.33691        1.35807        0.00339863     
1.34279        1.34514        0.0033828      
1.34867        1.32984        0.00336384     
1.35454        1.32607        0.00335899     
1.36042        1.29732        0.00332232     
1.3663         1.29329        0.00331741     
1.37217        1.27715        0.00329665     
1.37805        1.25854        0.00327264     
1.38393        1.24516        0.00325522     
1.3898         1.24032        0.00324938     
1.39568        1.22381        0.00322776     
1.40156        1.20372        0.0032008      
1.40743        1.18921        0.0031803      
1.41331        1.17852        0.00316645     
1.41919        1.16114        0.00314308     
1.42506        1.15615        0.00313631     
1.43094        1.13939        0.00311334     
1.43682        1.123          0.00309119     
1.44269        1.11123        0.0030749      
1.44857        1.10332        0.00306406     
1.45444        1.08948        0.0030451      
1.46032        1.07962        0.00303083     
1.4662         1.0678         0.00301406     
1.47207        1.0513         0.00299083     
1.47795        1.03706        0.00297015     
1.48383        1.02672        0.00295621     
1.4897         1.01316        0.0029359      
1.49558        1.00061        0.00291716     
1.50146        0.987366       0.00289829     
1.50733        0.975293       0.00287971     
1.51321        0.964036       0.00286381     
1.51909        0.951699       0.00284588     
1.52496        0.938553       0.00282559     
1.53084        0.928581       0.00281076     
1.53672        0.914977       0.00279036     
1.54259        0.90218        0.00277034     
1.54847        0.892863       0.00275602     
1.55435        0.878178       0.00273273     
1.56022        0.875617       0.0027296      
1.5661         0.859817       0.00270485     
1.57198        0.850415       0.00269025     
1.57785        0.840145       0.00267288     
1.58373        0.824524       0.00264978     
1.58961        0.819997       0.00264121     
1.59548        0.806835       0.00261987     
1.60136        0.799398       0.00260805     
1.60723        0.78929        0.00259133     
1.61311        0.772291       0.00256353     
1.61899        0.767543       0.00255628     
1.62486        0.757724       0.00253943     
1.63074        0.742103       0.00251235     
1.63662        0.738232       0.0025055      
1.64249        0.727324       0.00248815     
1.64837        0.714272       0.00246524     
1.65425        0.709167       0.00245655     
1.66012        0.698727       0.00243787     
1.666          0.688619       0.00242073     
1.67188        0.678792       0.00240363     
1.67775        0.669986       0.00238763     
1.68363        0.659214       0.00236824     
1.68951        0.651522       0.0023548      
1.69538        0.642214       0.00233724     
1.70126        0.635186       0.00232433     
1.70714        0.62769        0.00231101     
1.71301        0.619131       0.00229525     
1.71889        0.612903       0.00228364     
1.72477        0.600634       0.00226006     
1.73064        0.591844       0.00224377     
1.73652        0.584706       0.00223029     
1.7424         0.57618        0.0022147      
1.74827        0.569833       0.00220209     
1.75415        0.558611       0.00217965     
1.76002        0.548128       0.00216007     
1.7659         0.544078       0.00215146     
1.77178        0.539416       0.00214218     
1.77765        0.52781        0.0021185      
1.78353        0.527997       0.00211976     
1.78941        0.509738       0.00208233     
1.79528        0.505935       0.00207473     
1.80116        0.501051       0.00206471     
1.80704        0.491156       0.00204367     
1.81291        0.48771        0.00203731     
1.81879        0.479695       0.00201952     
1.82467        0.47003        0.00199968     
1.83054        0.46786        0.00199472     
1.83642        0.461028       0.00198076     
1.8423         0.453387       0.0019643      
1.84817        0.443347       0.00194184     
1.85405        0.437825       0.00193033     
1.85993        0.433682       0.00192104     
1.8658         0.426024       0.00190348     
1.87168        0.418162       0.00188649     
1.87756        0.41561        0.0018806      
1.88343        0.407927       0.00186288     
1.88931        0.403817       0.00185347     
1.89519        0.399869       0.00184482     
1.90106        0.391582       0.00182554     
1.90694        0.387005       0.00181498     
1.91282        0.378581       0.00179517     
1.91869        0.373885       0.00178353     
1.92457        0.364279       0.00176028     
1.93044        0.365002       0.00176239     
1.93632        0.355532       0.00173923     
1.9422         0.352461       0.00173135     
1.94807        0.349219       0.0017242      
1.95395        0.343399       0.0017095      
1.95983        0.335163       0.00168871     
1.9657         0.333198       0.00168338     
1.97158        0.327633       0.0016697      
1.97746        0.321498       0.00165402     
1.98333        0.314896       0.00163741     
1.98921        0.312284       0.00163054     
1.99509        0.305418       0.00161179     
2.00096        0.300729       0.0016         
2.00684        0.300219       0.00159824     
2.01272        0.295607       0.00158614     
2.01859        0.287116       0.00156314     
2.02447        0.283177       0.00155228     
2.03035        0.279084       0.00154111     
2.03622        0.276506       0.0015339      
2.0421         0.27226        0.00152202     
2.04798        0.268074       0.00151027     
2.05385        0.263624       0.00149796     
2.05973        0.262127       0.00149318     
2.06561        0.257813       0.00148103     
2.07148        0.253423       0.0014684      
2.07736        0.245723       0.00144599     
2.08323        0.24129        0.00143287     
2.08911        0.239035       0.00142582     
2.09499        0.23456        0.0014126      
2.10086        0.232926       0.00140768     
2.10674        0.231429       0.00140301     
2.11262        0.227285       0.00139053     
2.11849        0.220444       0.00136918     
2.12437        0.218053       0.00136223     
2.13025        0.214395       0.00135057     
2.13612        0.21191        0.00134301     
2.142          0.209485       0.00133521     
2.14788        0.20455        0.00131938     
2.15375        0.200016       0.00130432     
2.15963        0.199241       0.00130219     
2.16551        0.195642       0.00129035     
2.17138        0.192639       0.00128004     
2.17726        0.189346       0.00126896     
2.18314        0.185526       0.00125617     
2.18901        0.18248        0.00124607     
2.19489        0.180718       0.00123976     
2.20077        0.177281       0.00122799     
2.20664        0.174507       0.0012186      
2.21252        0.17221        0.00121051     
2.2184         0.1709         0.00120579     
2.22427        0.167156       0.00119266     
2.23015        0.162766       0.00117692     
2.23602        0.160103       0.00116734     
2.2419         0.158154       0.00115973     
2.24778        0.15601        0.00115204     
2.25365        0.153985       0.00114442     
2.25953        0.15299        0.00114104     
2.26541        0.147808       0.00112133     
2.27128        0.144524       0.00110902     
2.27716        0.14335        0.00110445     
2.28304        0.141154       0.00109584     
2.28891        0.138917       0.00108733     
2.29479        0.13793        0.00108347     
2.30067        0.13553        0.00107362     
2.30654        0.133335       0.00106497     
2.31242        0.130425       0.00105364     
2.3183         0.128068       0.00104382     
2.32417        0.12783        0.00104292     
2.33005        0.125184       0.00103272     
2.33593        0.121891       0.0010183      
2.3418         0.122028       0.0010193      
2.34768        0.12036        0.00101182     
2.35356        0.115638       0.000991722    
2.35943        0.113553       0.000983046    
2.36531        0.112456       0.000978217    
2.37119        0.111188       0.000972621    
2.37706        0.108457       0.000960767    
2.38294        0.104526       0.000942993    
2.38882        0.106023       0.000949792    
2.39469        0.103709       0.000939459    
2.40057        0.101216       0.000927881    
2.40644        0.0985103      0.000915565    
2.41232        0.0996079      0.000920409    
2.4182         0.0967661      0.000907433    
2.42407        0.0950814      0.000899188    
2.42995        0.0938732      0.000893946    
2.43583        0.0932691      0.00089107     
2.4417         0.0919758      0.000884389    
2.44758        0.0882832      0.000866631    
2.45346        0.0887171      0.000868839    
2.45933        0.0861391      0.000855967    
2.46521        0.0845055      0.000847988    
2.47109        0.084599       0.000848457    
2.47696        0.0821486      0.000836092    
2.48284        0.0791962      0.000820859    
2.48872        0.0782773      0.000816087    
2.49459        0.0777838      0.000813602    
2.50047        0.0763714      0.00080592     
2.50635        0.0753504      0.000800608    
2.51222        0.0736062      0.000791385    
2.5181         0.0729766      0.000787904    
2.52398        0.0718535      0.000782007    
2.52985        0.0711217      0.00077774     
2.53573        0.0679481      0.000760292    
2.54161        0.0676843      0.000758816    
