p (GeV)        dN/dp          error          
0.00293827     5.10504e-05    2.08412e-05    
0.00881482     0.000544538    6.80671e-05    
0.0146914      0.00143792     0.000110609    
0.0205679      0.00302048     0.000160309    
0.0264444      0.00499443     0.000206139    
0.032321       0.00775966     0.000256942    
0.0381975      0.0101846      0.000294362    
0.0440741      0.0134263      0.000337975    
0.0499506      0.0175954      0.000386902    
0.0558272      0.0219176      0.00043181     
0.0617037      0.0267249      0.000476813    
0.0675803      0.0321192      0.000522716    
0.0734568      0.0386877      0.000573669    
0.0793333      0.0437502      0.00061004     
0.0852099      0.0511951      0.000660001    
0.0910864      0.057687       0.000700883    
0.096963       0.0647319      0.000742092    
0.10284        0.0717088      0.000781127    
0.108716       0.0809915      0.000830189    
0.114593       0.0906655      0.000878235    
0.120469       0.0985783      0.000916118    
0.126346       0.106159       0.000950858    
0.132222       0.116021       0.000993434    
0.138099       0.129864       0.00105103     
0.143975       0.139648       0.00109019     
0.149852       0.14985        0.00112923     
0.155728       0.162604       0.00117634     
0.161605       0.173146       0.00121373     
0.167482       0.185849       0.00125761     
0.173358       0.197267       0.00129557     
0.179235       0.209188       0.00133421     
0.185111       0.222852       0.00137709     
0.190988       0.235981       0.00141701     
0.196864       0.250496       0.00145967     
0.202741       0.26331        0.00149697     
0.208617       0.273307       0.00152508     
0.214494       0.291634       0.00157475     
0.22037        0.304448       0.0016096      
0.226247       0.320639       0.00165142     
0.232123       0.334823       0.0016876      
0.238          0.350197       0.00172589     
0.243877       0.367367       0.00176831     
0.249753       0.38064        0.00179974     
0.25563        0.396755       0.00183703     
0.261506       0.41373        0.00187636     
0.267383       0.424612       0.0019006      
0.273259       0.441782       0.0019385      
0.279136       0.459139       0.00197658     
0.285012       0.477151       0.00201494     
0.290889       0.488655       0.00203891     
0.296765       0.506794       0.0020769      
0.302642       0.52336        0.00211036     
0.308519       0.539662       0.00214253     
0.314395       0.555684       0.00217427     
0.320272       0.570165       0.00220263     
0.326148       0.591759       0.00224345     
0.332025       0.605909       0.0022706      
0.337901       0.619386       0.0022956      
0.343778       0.636828       0.00232774     
0.349654       0.654015       0.00235935     
0.355531       0.667203       0.00238228     
0.361407       0.684297       0.00241238     
0.367284       0.702675       0.00244555     
0.373161       0.715438       0.00246697     
0.379037       0.732233       0.00249599     
0.384914       0.748016       0.00252315     
0.39079        0.765748       0.00255241     
0.396667       0.779097       0.00257501     
0.402543       0.796795       0.00260404     
0.40842        0.807745       0.00262242     
0.414296       0.830437       0.0026586      
0.420173       0.844016       0.00267967     
0.426049       0.852908       0.00269377     
0.431926       0.871456       0.00272277     
0.437803       0.884338       0.00274207     
0.443679       0.90064        0.0027685      
0.449556       0.911777       0.00278499     
0.455432       0.92802        0.00280997     
0.461309       0.936996       0.00282353     
0.467185       0.954056       0.00284939     
0.473062       0.968852       0.0028712      
0.478938       0.983333       0.00289218     
0.484815       0.992003       0.00290576     
0.490691       1.00469        0.00292396     
0.496568       1.01788        0.00294251     
0.502445       1.03278        0.00296454     
0.508321       1.04139        0.00297699     
0.514198       1.05898        0.00300194     
0.520074       1.06823        0.00301486     
0.525951       1.07016        0.00301726     
0.531827       1.092          0.00304836     
0.537704       1.09629        0.00305408     
0.54358        1.10498        0.00306605     
0.549457       1.12639        0.00309495     
0.555333       1.12681        0.00309636     
0.56121        1.13824        0.00311262     
0.567086       1.14984        0.00312877     
0.572963       1.15499        0.00313469     
0.57884        1.1646         0.00314736     
0.584716       1.16805        0.00315277     
0.590593       1.18643        0.0031782      
0.596469       1.18454        0.00317459     
0.602346       1.19272        0.00318501     
0.608222       1.20748        0.00320532     
0.614099       1.21031        0.00320997     
0.619975       1.21303        0.00321258     
0.625852       1.22033        0.00322313     
0.631728       1.22834        0.00323245     
0.637605       1.23645        0.00324284     
0.643482       1.24271        0.00325117     
0.649358       1.24654        0.00325673     
0.655235       1.25278        0.00326439     
0.661111       1.25171        0.00326241     
0.666988       1.25729        0.0032698      
0.672864       1.26933        0.00328642     
0.678741       1.27197        0.00328956     
0.684617       1.27566        0.00329408     
0.690494       1.27328        0.00329257     
0.69637        1.27511        0.00329461     
0.702247       1.28696        0.00330959     
0.708124       1.28023        0.00330063     
0.714          1.28161        0.00330291     
0.719877       1.28796        0.00331017     
0.725753       1.28659        0.00330832     
0.73163        1.28977        0.00331252     
0.737506       1.29172        0.00331545     
0.743383       1.28813        0.00331003     
0.749259       1.28961        0.00331315     
0.755136       1.29693        0.00332117     
0.761012       1.2984         0.00332459     
0.766889       1.28994        0.0033128      
0.772766       1.29448        0.00331888     
0.778642       1.28545        0.00330666     
0.784519       1.29306        0.0033163      
0.790395       1.28776        0.0033102      
0.796272       1.28823        0.00331025     
0.802148       1.28173        0.00330194     
0.808025       1.28593        0.00330764     
0.813901       1.28211        0.00330337     
0.819778       1.27441        0.00329204     
0.825654       1.27558        0.00329411     
0.831531       1.27418        0.00329253     
0.837408       1.2716         0.00328939     
0.843284       1.26549        0.00328157     
0.849161       1.26878        0.00328549     
0.855037       1.26386        0.00327974     
0.860914       1.26044        0.00327411     
0.86679        1.2494         0.00326034     
0.872667       1.25214        0.00326348     
0.878543       1.25135        0.00326371     
0.88442        1.24295        0.00325212     
0.890296       1.23844        0.00324655     
0.896173       1.23573        0.00324291     
0.90205        1.22816        0.00323294     
0.907926       1.22014        0.00322269     
0.913803       1.21783        0.00321918     
0.919679       1.21374        0.00321346     
0.925556       1.21347        0.00321263     
0.931432       1.20456        0.00320148     
0.937309       1.20463        0.00320172     
0.943185       1.18676        0.00317743     
0.949062       1.18506        0.00317594     
0.954938       1.18166        0.0031705      
0.960815       1.17615        0.00316355     
0.966691       1.17213        0.00315781     
0.972568       1.16912        0.00315417     
0.978445       1.1568         0.00313746     
0.984321       1.14976        0.00312798     
0.990198       1.14718        0.00312459     
0.996074       1.1385         0.00311279     
1.00195        1.13298        0.00310403     
1.00783        1.12273        0.00309097     
1.0137         1.11608        0.00308084     
1.01958        1.11452        0.00307983     
1.02546        1.0998         0.00305912     
1.03133        1.09219        0.00304905     
1.03721        1.08937        0.00304453     
1.04309        1.07883        0.00302926     
1.04896        1.07875        0.00302842     
1.05484        1.06862        0.00301478     
1.06072        1.05965        0.00300291     
1.06659        1.04964        0.0029884      
1.07247        1.03877        0.00297265     
1.07835        1.03997        0.00297407     
1.08422        1.02705        0.00295583     
1.0901         1.02195        0.00294946     
1.09598        1.01432        0.00293708     
1.10185        1.00693        0.0029266      
1.10773        0.998078       0.00291478     
1.11361        0.987213       0.00289857     
1.11948        0.979011       0.00288624     
1.12536        0.977326       0.00288406     
1.13123        0.964963       0.00286497     
1.13711        0.963764       0.00286346     
1.14299        0.947964       0.00284049     
1.14886        0.941114       0.00282999     
1.15474        0.932495       0.00281666     
1.16062        0.927884       0.00280963     
1.16649        0.913249       0.00278784     
1.17237        0.910425       0.00278333     
1.17825        0.905643       0.00277612     
1.18412        0.886873       0.00274709     
1.19           0.880747       0.00273697     
1.19588        0.87851        0.00273374     
1.20175        0.867108       0.00271559     
1.20763        0.858353       0.00270168     
1.21351        0.85027        0.00268984     
1.21938        0.853682       0.00269531     
1.22526        0.833509       0.00266281     
1.23114        0.827791       0.00265304     
1.23701        0.823196       0.00264633     
1.24289        0.814143       0.00263171     
1.24877        0.804333       0.00261613     
1.25464        0.797782       0.00260638     
1.26052        0.790345       0.00259305     
1.2664         0.779821       0.00257569     
1.27227        0.778008       0.00257238     
1.27815        0.764038       0.00255015     
1.28402        0.761485       0.00254513     
1.2899         0.748901       0.00252451     
1.29578        0.739703       0.00250861     
1.30165        0.731867       0.0024952      
1.30753        0.729459       0.00249182     
1.31341        0.717488       0.00247092     
1.31928        0.711013       0.00245946     
1.32516        0.70122        0.00244239     
1.33104        0.693545       0.00242898     
1.33691        0.688296       0.00241975     
1.34279        0.682484       0.00240948     
1.34867        0.675763       0.0023981      
1.35454        0.668658       0.0023852      
1.36042        0.654977       0.00236086     
1.3663         0.651046       0.00235327     
1.37217        0.639015       0.0023322      
1.37805        0.638649       0.00233048     
1.38393        0.629537       0.00231454     
1.3898         0.626737       0.00231002     
1.39568        0.619429       0.00229694     
1.40156        0.610112       0.00227825     
1.40743        0.596362       0.00225258     
1.41331        0.59432        0.00224926     
1.41919        0.586271       0.00223306     
1.42506        0.582375       0.00222619     
1.43094        0.571373       0.00220521     
1.43682        0.563835       0.00219062     
1.44269        0.563682       0.00218999     
1.44857        0.554433       0.00217181     
1.45444        0.548962       0.00216063     
1.46032        0.539067       0.00214142     
1.4662         0.535017       0.00213324     
1.47207        0.531435       0.00212623     
1.47795        0.523548       0.00211094     
1.48383        0.519259       0.00210195     
1.4897         0.511576       0.00208567     
1.49558        0.50214        0.00206733     
1.50146        0.495351       0.00205311     
1.50733        0.495232       0.00205262     
1.51321        0.485421       0.00203202     
1.51909        0.482316       0.00202586     
1.52496        0.474173       0.0020085      
1.53084        0.468821       0.00199698     
1.53672        0.459854       0.00197807     
1.54259        0.453089       0.0019631      
1.54847        0.450103       0.00195666     
1.55435        0.444105       0.00194435     
1.56022        0.436345       0.00192667     
1.5661         0.433001       0.00191995     
1.57198        0.425522       0.00190278     
1.57785        0.420647       0.00189148     
1.58373        0.414342       0.00187771     
1.58961        0.414495       0.00187813     
1.59548        0.404974       0.00185682     
1.60136        0.400576       0.00184566     
1.60723        0.394237       0.00183153     
1.61311        0.390808       0.00182287     
1.61899        0.384265       0.00180793     
1.62486        0.378896       0.00179543     
1.63074        0.372625       0.00178066     
1.63662        0.365955       0.00176501     
1.64249        0.363896       0.00175961     
1.64837        0.356425       0.00174169     
1.65425        0.355923       0.00174043     
1.66012        0.350104       0.00172579     
1.666          0.345756       0.001715       
1.67188        0.34077        0.0017031      
1.67775        0.334116       0.00168629     
1.68363        0.33119        0.0016784      
1.68951        0.324825       0.00166291     
1.69538        0.320316       0.0016505      
1.70126        0.318844       0.00164703     
1.70714        0.311858       0.00162886     
1.71301        0.307366       0.00161695     
1.71889        0.301955       0.00160252     
1.72477        0.300585       0.00159889     
1.73064        0.295029       0.00158455     
1.73652        0.290417       0.00157156     
1.7424         0.283976       0.00155404     
1.74827        0.282794       0.00155133     
1.75415        0.278608       0.00153961     
1.76002        0.276489       0.00153319     
1.7659         0.272269       0.00152243     
1.77178        0.269631       0.00151435     
1.77765        0.264254       0.00149945     
1.78353        0.260621       0.00148914     
1.78941        0.254469       0.00147157     
1.79528        0.253406       0.00146874     
1.80116        0.249356       0.0014565      
1.80704        0.245629       0.00144541     
1.81291        0.239078       0.00142631     
1.81879        0.239112       0.00142615     
1.82467        0.232347       0.00140615     
1.83054        0.229378       0.0013969      
1.83642        0.225941       0.00138663     
1.8423         0.224707       0.00138238     
1.84817        0.220231       0.00136899     
1.85405        0.219117       0.00136569     
1.85993        0.213723       0.00134835     
1.8658         0.211885       0.00134293     
1.87168        0.207265       0.00132819     
1.87756        0.20501        0.00132075     
1.88343        0.200849       0.0013072      
1.88931        0.198373       0.00129897     
1.89519        0.195072       0.00128797     
1.90106        0.192332       0.00127919     
1.90694        0.190631       0.00127319     
1.91282        0.186572       0.00125993     
1.91869        0.185032       0.0012545      
1.92457        0.181552       0.00124261     
1.93044        0.180191       0.00123813     
1.93632        0.175988       0.00122381     
1.9422         0.173052       0.00121317     
1.94807        0.171291       0.00120717     
1.95395        0.169368       0.0012005      
1.95983        0.166722       0.00119117     
1.9657         0.164272       0.00118228     
1.97158        0.160324       0.00116795     
1.97746        0.15875        0.00116259     
1.98333        0.156725       0.00115473     
1.98921        0.154479       0.00114651     
1.99509        0.153424       0.00114284     
2.00096        0.146736       0.00111739     
2.00684        0.144728       0.00110967     
2.01272        0.143401       0.00110445     
2.01859        0.140686       0.00109436     
2.02447        0.13981        0.00109055     
2.03035        0.137513       0.00108177     
2.03622        0.135275       0.00107295     
2.0421         0.13388        0.00106714     
2.04798        0.131004       0.00105597     
2.05385        0.129515       0.00104948     
2.05973        0.1284         0.0010451      
2.06561        0.124852       0.00103079     
2.07148        0.122793       0.00102227     
2.07736        0.121551       0.00101695     
2.08323        0.119067       0.00100645     
2.08911        0.115706       0.000992233    
2.09499        0.116574       0.000995796    
2.10086        0.115246       0.000990337    
2.10674        0.113          0.000980948    
2.11262        0.11192        0.000975812    
2.11849        0.107631       0.00095711     
2.12437        0.107027       0.000954425    
2.13025        0.104381       0.000942417    
2.13612        0.103437       0.000938381    
2.142          0.100348       0.000923898    
2.14788        0.0994122      0.000919899    
2.15375        0.0985188      0.000915446    
2.15963        0.0957195      0.00090268     
2.16551        0.0950559      0.00089955     
2.17138        0.0949282      0.000899108    
2.17726        0.093686       0.000892731    
2.18314        0.0903848      0.000877288    
2.18901        0.0900104      0.000874894    
2.19489        0.0866666      0.000858751    
2.20077        0.0862327      0.000856516    
2.20664        0.084582       0.000848286    
2.21252        0.0837652      0.000844184    
2.2184         0.0819529      0.000835097    
2.22427        0.0792813      0.000821476    
2.23015        0.0808979      0.000829623    
2.23602        0.0779965      0.000814801    
2.2419         0.0757673      0.000802818    
2.24778        0.0756652      0.000802277    
2.25365        0.0750866      0.000799297    
2.25953        0.0721257      0.000783393    
2.26541        0.0727298      0.00078648     
2.27128        0.0705602      0.000774852    
2.27716        0.0702879      0.00077345     
2.28304        0.0677184      0.000759006    
2.28891        0.0689181      0.000765885    
2.29479        0.0659231      0.000748884    
2.30067        0.0652084      0.000744719    
2.30654        0.0646213      0.000741556    
2.31242        0.0624772      0.000729062    
2.3183         0.0630558      0.000732724    
2.32417        0.0604437      0.000717106    
2.33005        0.0607074      0.000718668    
2.33593        0.0588696      0.000707611    
2.3418         0.0570233      0.000696534    
2.34768        0.0573807      0.000698712    
2.35356        0.0558406      0.000689278    
2.35943        0.055679       0.000688175    
2.36531        0.0540964      0.000678541    
2.37119        0.0539263      0.00067726     
2.37706        0.0535774      0.000675174    
2.38294        0.0508292      0.00065764     
2.38882        0.0498592      0.000651228    
2.39469        0.0483447      0.000641377    
2.40057        0.0495274      0.000649281    
2.40644        0.0492551      0.000647496    
2.41232        0.0476896      0.000637133    
2.4182         0.0464304      0.000628558    
2.42407        0.0462347      0.000627117    
2.42995        0.0442011      0.000613175    
2.43583        0.0433588      0.000607306    
2.4417         0.0425931      0.00060192     
2.44758        0.0434439      0.000607901    
2.45346        0.0410871      0.000591309    
2.45933        0.0415465      0.000594482    
2.46521        0.0402447      0.00058522     
2.47109        0.0399044      0.000582617    
2.47696        0.039445       0.000579254    
2.48284        0.0385856      0.000573038    
2.48872        0.0374455      0.000564386    
2.49459        0.0371222      0.000561944    
2.50047        0.0375221      0.000564962    
2.50635        0.0354205      0.000548916    
2.51222        0.0338719      0.000536786    
2.5181         0.0347143      0.000543418    
2.52398        0.0350546      0.000546207    
2.52985        0.033906       0.000537325    
2.53573        0.0328254      0.00052843     
2.54161        0.0327403      0.000527745    
