p (GeV)        dN/dp          error          
0.00293827     9.35924e-05    2.82192e-05    
0.00881482     0.000391387    5.77067e-05    
0.0146914      0.00120819     0.000101389    
0.0205679      0.00223771     0.000137982    
0.0264444      0.00390536     0.000182284    
0.032321       0.00614307     0.000228617    
0.0381975      0.00845735     0.000268244    
0.0440741      0.0110779      0.000307001    
0.0499506      0.0146174      0.000352648    
0.0558272      0.0175954      0.000386902    
0.0617037      0.0211434      0.000424116    
0.0675803      0.0254316      0.000465134    
0.0734568      0.0306302      0.0005106      
0.0793333      0.0363819      0.000556445    
0.0852099      0.0408573      0.000589654    
0.0910864      0.0464899      0.000629076    
0.096963       0.0534072      0.000674101    
0.10284        0.0600353      0.00071458     
0.108716       0.0646043      0.000741458    
0.114593       0.0717258      0.00078122     
0.120469       0.0797748      0.000823761    
0.126346       0.0895765      0.000873281    
0.132222       0.0967661      0.000907433    
0.138099       0.105581       0.000947734    
0.143975       0.113068       0.000980874    
0.149852       0.122283       0.00101993     
0.155728       0.130204       0.00105234     
0.161605       0.140244       0.00109237     
0.167482       0.150122       0.00113019     
0.173358       0.158401       0.00116076     
0.179235       0.171546       0.0012083      
0.185111       0.180795       0.00123991     
0.190988       0.191771       0.00127721     
0.196864       0.203189       0.00131477     
0.202741       0.215118       0.0013531      
0.208617       0.227625       0.00139188     
0.214494       0.237784       0.0014222      
0.22037        0.250139       0.00145898     
0.226247       0.261497       0.00149169     
0.232123       0.272847       0.00152347     
0.238          0.282564       0.0015507      
0.243877       0.29645        0.00158825     
0.249753       0.310157       0.00162403     
0.25563        0.319695       0.00164921     
0.261506       0.335044       0.00168832     
0.267383       0.347772       0.00172005     
0.273259       0.361182       0.00175302     
0.279136       0.374514       0.00178551     
0.285012       0.38532        0.0018106      
0.290889       0.398712       0.00184232     
0.296765       0.411917       0.001872       
0.302642       0.42696        0.00190643     
0.308519       0.439757       0.00193389     
0.314395       0.451754       0.00196052     
0.320272       0.464201       0.00198742     
0.326148       0.479261       0.00201926     
0.332025       0.493606       0.00204958     
0.337901       0.51007        0.00208324     
0.343778       0.522578       0.00210861     
0.349654       0.534557       0.0021326      
0.355531       0.54966        0.00216286     
0.361407       0.560049       0.00218337     
0.367284       0.57493        0.00221182     
0.373161       0.587429       0.00223567     
0.379037       0.599425       0.00225825     
0.384914       0.609967       0.0022776      
0.39079        0.62324        0.00230315     
0.396667       0.636241       0.00232637     
0.402543       0.653811       0.00235828     
0.40842        0.664166       0.0023772      
0.414296       0.674903       0.00239692     
0.420173       0.686569       0.00241719     
0.426049       0.697757       0.00243646     
0.431926       0.711081       0.00245969     
0.437803       0.72432        0.0024825      
0.443679       0.735449       0.00250206     
0.449556       0.746578       0.00251977     
0.455432       0.75809        0.00253984     
0.461309       0.767773       0.00255606     
0.467185       0.783717       0.00258206     
0.473062       0.790337       0.00259278     
0.478938       0.804138       0.00261562     
0.484815       0.812782       0.00262918     
0.490691       0.822916       0.00264619     
0.496568       0.836248       0.00266727     
0.502445       0.842817       0.00267784     
0.508321       0.853206       0.00269384     
0.514198       0.861697       0.00270767     
0.520074       0.873107       0.0027262      
0.525951       0.87474        0.00272883     
0.531827       0.891978       0.0027548      
0.537704       0.894641       0.00275939     
0.54358        0.908723       0.00278071     
0.549457       0.912441       0.00278745     
0.555333       0.924702       0.00280486     
0.56121        0.925578       0.00280626     
0.567086       0.938451       0.00282554     
0.572963       0.943216       0.00283296     
0.57884        0.952788       0.00284704     
0.584716       0.963432       0.00286252     
0.590593       0.964215       0.00286425     
0.596469       0.970392       0.00287341     
0.602346       0.975829       0.00288105     
0.608222       0.979964       0.00288746     
0.614099       0.988149       0.00289975     
0.619975       0.994079       0.00290761     
0.625852       0.999839       0.00291707     
0.631728       1.00758        0.00292836     
0.637605       1.0083         0.00292961     
0.643482       1.01066        0.00293248     
0.649358       1.01622        0.0029397      
0.655235       1.02517        0.00295362     
0.661111       1.02437        0.0029515      
0.666988       1.03488        0.0029675      
0.672864       1.03265        0.00296385     
0.678741       1.03535        0.00296756     
0.684617       1.04129        0.00297642     
0.690494       1.04007        0.00297467     
0.69637        1.0463         0.00298362     
0.702247       1.05268        0.00299274     
0.708124       1.05533        0.00299613     
0.714          1.04529        0.00298267     
0.719877       1.04957        0.00298816     
0.725753       1.05324        0.00299338     
0.73163        1.06004        0.00300214     
0.737506       1.05451        0.00299423     
0.743383       1.05389        0.00299421     
0.749259       1.05821        0.00300088     
0.755136       1.0632         0.00300823     
0.761012       1.06786        0.00301406     
0.766889       1.05907        0.0030017      
0.772766       1.05447        0.00299582     
0.778642       1.06364        0.00300724     
0.784519       1.05736        0.00299956     
0.790395       1.05889        0.00300111     
0.796272       1.0512         0.00299079     
0.802148       1.05483        0.00299617     
0.808025       1.04948        0.00298723     
0.813901       1.04776        0.00298571     
0.819778       1.04152        0.00297665     
0.825654       1.05256        0.00299187     
0.831531       1.04782        0.0029863      
0.837408       1.03915        0.00297371     
0.843284       1.04059        0.00297515     
0.849161       1.03752        0.00297146     
0.855037       1.03704        0.00297065     
0.860914       1.03243        0.00296368     
0.86679        1.03466        0.00296711     
0.872667       1.02581        0.00295411     
0.878543       1.02404        0.00295176     
0.88442        1.01993        0.0029459      
0.890296       1.0188         0.00294442     
0.896173       1.01627        0.00294066     
0.90205        1.01227        0.00293409     
0.907926       1.00447        0.00292418     
0.913803       1.00205        0.00291974     
0.919679       0.999805       0.0029166      
0.925556       0.993228       0.00290728     
0.931432       0.98985        0.00290167     
0.937309       0.989774       0.00290146     
0.943185       0.980695       0.00288885     
0.949062       0.981427       0.00289054     
0.954938       0.969277       0.00287132     
0.960815       0.963815       0.00286419     
0.966691       0.96818        0.00287014     
0.972568       0.955757       0.00285142     
0.978445       0.950984       0.00284501     
0.984321       0.951767       0.0028456      
0.990198       0.942756       0.00283235     
0.996074       0.937243       0.0028239      
1.00195        0.930198       0.00281307     
1.00783        0.92648        0.00280707     
1.0137         0.924583       0.00280456     
1.01958        0.911982       0.002786       
1.02546        0.907949       0.00277935     
1.03133        0.901074       0.00276929     
1.03721        0.896786       0.00276274     
1.04309        0.894105       0.00275807     
1.04896        0.886388       0.00274558     
1.05484        0.880084       0.00273719     
1.06072        0.874204       0.0027275      
1.06659        0.865738       0.00271384     
1.07247        0.865296       0.00271326     
1.07835        0.853827       0.00269548     
1.08422        0.847369       0.0026854      
1.0901         0.84354        0.00267938     
1.09598        0.834615       0.0026648      
1.10185        0.832283       0.00266147     
1.10773        0.824124       0.00264775     
1.11361        0.81827        0.00263831     
1.11948        0.817343       0.00263667     
1.12536        0.808264       0.00262123     
1.13123        0.797169       0.00260423     
1.13711        0.792396       0.00259616     
1.14299        0.789912       0.00259296     
1.14886        0.782696       0.00257946     
1.15474        0.771763       0.00256351     
1.16062        0.765858       0.00255236     
1.16649        0.760039       0.00254287     
1.17237        0.749624       0.00252575     
1.17825        0.746672       0.0025207      
1.18412        0.742333       0.00251285     
1.19           0.731569       0.00249446     
1.19588        0.72803        0.00248873     
1.20175        0.724074       0.00248222     
1.20763        0.71388        0.00246455     
1.21351        0.708333       0.00245447     
1.21938        0.700284       0.00244054     
1.22526        0.698421       0.00243776     
1.23114        0.690814       0.00242489     
1.23701        0.683557       0.00241192     
1.24289        0.676869       0.00239995     
1.24877        0.668114       0.00238381     
1.25464        0.660039       0.00237069     
1.26052        0.653684       0.00235815     
1.2664         0.648995       0.00234958     
1.27227        0.640427       0.00233488     
1.27815        0.63425        0.00232353     
1.28402        0.629996       0.00231591     
1.2899         0.626167       0.00230829     
1.29578        0.619361       0.00229621     
1.30165        0.611771       0.00228148     
1.30753        0.606641       0.00227219     
1.31341        0.596686       0.00225341     
1.31928        0.590058       0.00224102     
1.32516        0.585123       0.0022314      
1.33104        0.582187       0.00222535     
1.33691        0.574462       0.0022107      
1.34279        0.567927       0.00219741     
1.34867        0.563928       0.0021908      
1.35454        0.553786       0.00217078     
1.36042        0.548766       0.00216092     
1.3663         0.546912       0.00215715     
1.37217        0.539424       0.00214209     
1.37805        0.529784       0.00212305     
1.38393        0.524594       0.00211248     
1.3898         0.521335       0.00210636     
1.39568        0.516843       0.00209701     
1.40156        0.509789       0.00208295     
1.40743        0.504761       0.00207254     
1.41331        0.498822       0.00205976     
1.41919        0.492313       0.00204667     
1.42506        0.483813       0.00202888     
1.43094        0.478079       0.00201667     
1.43682        0.476181       0.00201287     
1.44269        0.468992       0.00199698     
1.44857        0.463631       0.00198624     
1.45444        0.457208       0.00197225     
1.46032        0.454468       0.0019664      
1.4662         0.449227       0.00195458     
1.47207        0.443262       0.00194199     
1.47795        0.441688       0.00193871     
1.48383        0.431359       0.0019155      
1.4897         0.426935       0.0019055      
1.49558        0.415848       0.00188106     
1.50146        0.416495       0.00188244     
1.50733        0.409986       0.00186743     
1.51321        0.406829       0.00186034     
1.51909        0.400159       0.00184506     
1.52496        0.395164       0.00183348     
1.53084        0.395505       0.00183434     
1.53672        0.387234       0.00181567     
1.54259        0.380275       0.00179876     
1.54847        0.377765       0.00179284     
1.55435        0.376684       0.00179037     
1.56022        0.370047       0.00177452     
1.5661         0.362943       0.00175723     
1.57198        0.358119       0.00174643     
1.57785        0.35543        0.00173965     
1.58373        0.347679       0.00172003     
1.58961        0.345569       0.00171479     
1.59548        0.34014        0.00170102     
1.60136        0.338005       0.00169587     
1.60723        0.329803       0.00167555     
1.61311        0.325361       0.0016638      
1.61899        0.321464       0.00165371     
1.62486        0.314717       0.00163597     
1.63074        0.314454       0.00163556     
1.63662        0.31191        0.00162886     
1.64249        0.304354       0.00160921     
1.64837        0.300874       0.00159993     
1.65425        0.299913       0.00159729     
1.66012        0.295361       0.00158498     
1.666          0.290017       0.00157062     
1.67188        0.287984       0.00156508     
1.67775        0.281637       0.00154793     
1.68363        0.280964       0.00154604     
1.68951        0.27785        0.00153724     
1.69538        0.270499       0.00151692     
1.70126        0.270006       0.00151597     
1.70714        0.264237       0.00149979     
1.71301        0.262391       0.00149422     
1.71889        0.255805       0.00147497     
1.72477        0.252325       0.00146518     
1.73064        0.251576       0.00146291     
1.73652        0.245731       0.00144611     
1.7424         0.241894       0.00143436     
1.74827        0.243247       0.0014387      
1.75415        0.239086       0.00142638     
1.76002        0.23245        0.00140671     
1.7659         0.22994        0.0013986      
1.77178        0.225013       0.001384       
1.77765        0.221618       0.00137318     
1.78353        0.218224       0.00136249     
1.78941        0.217807       0.00136194     
1.79528        0.214276       0.00135019     
1.80116        0.211272       0.00134083     
1.80704        0.207545       0.0013292      
1.81291        0.206422       0.00132544     
1.81879        0.201768       0.00131024     
1.82467        0.199743       0.00130344     
1.83054        0.195846       0.00129085     
1.83642        0.194766       0.00128735     
1.8423         0.189763       0.00127029     
1.84817        0.187746       0.00126371     
1.85405        0.183994       0.00125139     
1.85993        0.183501       0.00124966     
1.8658         0.178676       0.0012331      
1.87168        0.175784       0.00122286     
1.87756        0.176856       0.00122682     
1.88343        0.172576       0.00121138     
1.88931        0.170849       0.00120555     
1.89519        0.165148       0.00118518     
1.90106        0.165761       0.00118762     
1.90694        0.163038       0.00117778     
1.91282        0.160188       0.00116721     
1.91869        0.157976       0.00115964     
1.92457        0.156478       0.00115382     
1.93044        0.152028       0.00113708     
1.93632        0.151254       0.00113456     
1.9422         0.14791        0.00112172     
1.94807        0.147987       0.00112194     
1.95395        0.143826       0.00110634     
1.95983        0.142371       0.00110068     
1.9657         0.1381         0.00108401     
1.97158        0.137717       0.0010825      
1.97746        0.134909       0.0010715      
1.98333        0.134314       0.00106873     
1.98921        0.129175       0.00104866     
1.99509        0.13           0.00105144     
2.00096        0.128162       0.00104448     
2.00684        0.126826       0.00103889     
2.01272        0.122385       0.00102029     
2.01859        0.122274       0.00102025     
2.02447        0.119016       0.00100623     
2.03035        0.117722       0.0010009      
2.03622        0.116974       0.000997719    
2.0421         0.114914       0.000988839    
2.04798        0.11277        0.000979362    
2.05385        0.110465       0.000969307    
2.05973        0.108746       0.000961895    
2.06561        0.10775        0.000957412    
2.07148        0.105964       0.000949449    
2.07736        0.103862       0.000939997    
2.08323        0.101846       0.000930838    
2.08911        0.102969       0.000936105    
2.09499        0.0985273      0.000915723    
2.10086        0.0981359      0.00091438     
2.10674        0.0959322      0.0009032      
2.11262        0.0950899      0.000899872    
2.11849        0.0929032      0.000888997    
2.12437        0.0901635      0.000875638    
2.13025        0.0902401      0.00087634     
2.13612        0.0888618      0.000869546    
2.142          0.087594       0.000863161    
2.14788        0.0867176      0.000859172    
2.15375        0.0854244      0.000852666    
2.15963        0.0839269      0.000845169    
2.16551        0.0816636      0.000833623    
2.17138        0.0802512      0.000826391    
2.17726        0.0802172      0.000826041    
2.18314        0.0797322      0.00082363     
2.18901        0.0773329      0.000810975    
2.19489        0.077001       0.000809502    
2.20077        0.07444        0.000795942    
2.20664        0.0742358      0.000794941    
2.21252        0.0720662      0.000782885    
2.2184         0.0714706      0.000779737    
2.22427        0.069837       0.000770874    
2.23015        0.0691648      0.000767347    
2.23602        0.0687053      0.000764609    
2.2419         0.0665187      0.00075245     
2.24778        0.066842       0.000754082    
2.25365        0.0641619      0.000738819    
2.25953        0.0635578      0.000735335    
2.26541        0.0623581      0.000728367    
2.27128        0.061788       0.000724932    
2.27716        0.0610648      0.00072098     
2.28304        0.0606564      0.000718568    
2.28891        0.0596864      0.000712603    
2.29479        0.057738       0.000700779    
2.30067        0.057219       0.000697624    
2.30654        0.0568702      0.000695703    
2.31242        0.0555854      0.000687701    
2.3183         0.0547431      0.00068258     
2.32417        0.0535519      0.000675013    
2.33005        0.0519013      0.000664426    
2.33593        0.0524628      0.000668118    
2.3418         0.050174       0.00065328     
2.34768        0.0507356      0.000656925    
2.35356        0.0475875      0.000636337    
2.35943        0.0473067      0.000634344    
2.36531        0.0484213      0.000641772    
2.37119        0.0468898      0.000631544    
2.37706        0.045605       0.00062295     
2.38294        0.0442862      0.000613765    
2.38882        0.0452136      0.000620156    
2.39469        0.0432312      0.000606412    
2.40057        0.0422612      0.000599572    
2.40644        0.0415295      0.000594725    
2.41232        0.0416912      0.000595515    
2.4182         0.0411211      0.000591431    
2.42407        0.03953        0.000580128    
2.42995        0.0393003      0.000578192    
2.43583        0.0394109      0.000579005    
2.4417         0.0377263      0.000566497    
2.44758        0.0377773      0.000567008    
2.45346        0.0369775      0.000560849    
2.45933        0.0372413      0.000562974    
2.46521        0.0347568      0.000543751    
2.47109        0.0349525      0.000545677    
2.47696        0.0347058      0.000543351    
2.48284        0.0340847      0.000538468    
2.48872        0.0341868      0.000539274    
2.49459        0.0331743      0.00053123     
2.50047        0.0325276      0.000526028    
2.50635        0.0314981      0.000517638    
2.51222        0.0308004      0.000511874    
2.5181         0.0308089      0.000511945    
2.52398        0.0293285      0.000499495    
2.52985        0.030409       0.000508754    
2.53573        0.0279501      0.000487618    
2.54161        0.0279841      0.000487915    
