pT (GeV)       dN/dpt         error          
0.00349761     0.614548       0.00209633     
0.0104928      1.84579        0.00363206     
0.0174881      3.06293        0.00467841     
0.0244833      4.2879         0.00553581     
0.0314785      5.48682        0.00626217     
0.0384737      6.69569        0.00691766     
0.0454689      7.8827         0.0075051      
0.0524642      9.07153        0.00805162     
0.0594594      10.2392        0.00855507     
0.0664546      11.389         0.00902283     
0.0734498      12.5519        0.00947131     
0.0804451      13.6526        0.00987712     
0.0874403      14.7446        0.0102669      
0.0944355      15.8404        0.0106437      
0.101431       16.8923        0.0109896      
0.108426       17.9179        0.0113129      
0.115421       18.9243        0.0116298      
0.122416       19.8866        0.0119248      
0.129412       20.8369        0.0122025      
0.136407       21.7793        0.0124783      
0.143402       22.6582        0.0127237      
0.150397       23.5362        0.0129723      
0.157392       24.3889        0.0132034      
0.164388       25.2286        0.0134313      
0.171383       25.9862        0.0136324      
0.178378       26.7028        0.0138137      
0.185373       27.4175        0.0139982      
0.192369       28.1154        0.0141782      
0.199364       28.7482        0.0143317      
0.206359       29.3701        0.0144881      
0.213354       29.9425        0.0146328      
0.220349       30.485         0.0147606      
0.227345       31.018         0.0148924      
0.23434        31.5075        0.0150092      
0.241335       31.9522        0.0151108      
0.24833        32.3676        0.0152113      
0.255326       32.7733        0.0153079      
0.262321       33.1459        0.0153928      
0.269316       33.4675        0.0154669      
0.276311       33.7842        0.0155437      
0.283306       34.0605        0.0156071      
0.290302       34.2934        0.0156622      
0.297297       34.5212        0.0157115      
0.304292       34.6822        0.0157437      
0.311287       34.8665        0.0157851      
0.318283       34.9699        0.0158126      
0.325278       35.1043        0.0158418      
0.332273       35.1834        0.0158603      
0.339268       35.2592        0.0158754      
0.346263       35.269         0.0158766      
0.353259       35.3376        0.0158912      
0.360254       35.3206        0.0158906      
0.367249       35.2424        0.015869       
0.374244       35.2615        0.015877       
0.38124        35.1772        0.0158568      
0.388235       35.098         0.0158415      
0.39523        34.9862        0.0158097      
0.402225       34.8646        0.0157836      
0.40922        34.7162        0.0157537      
0.416216       34.5696        0.0157223      
0.423211       34.4499        0.0156896      
0.430206       34.2352        0.015648       
0.437201       34.0755        0.0156077      
0.444197       33.8319        0.0155501      
0.451192       33.6365        0.0155051      
0.458187       33.3918        0.0154514      
0.465182       33.1349        0.0153857      
0.472177       32.9209        0.0153357      
0.479173       32.6225        0.0152716      
0.486168       32.3766        0.0152105      
0.493163       32.0677        0.0151416      
0.500158       31.7889        0.0150714      
0.507154       31.52          0.0150091      
0.514149       31.2222        0.0149377      
0.521144       30.9037        0.0148631      
0.528139       30.5917        0.014791       
0.535134       30.267         0.0147105      
0.54213        29.9902        0.0146417      
0.549125       29.6354        0.0145543      
0.55612        29.3232        0.0144775      
0.563115       28.999         0.0143935      
0.570111       28.6455        0.0143077      
0.577106       28.2982        0.0142207      
0.584101       27.9533        0.0141403      
0.591096       27.6008        0.0140462      
0.598091       27.2804        0.0139633      
0.605087       26.9577        0.0138776      
0.612082       26.6041        0.0137901      
0.619077       26.2597        0.0137002      
0.626072       25.9018        0.0136069      
0.633068       25.5673        0.0135175      
0.640063       25.2054        0.0134237      
0.647058       24.8478        0.0133262      
0.654053       24.5102        0.0132367      
0.661048       24.1489        0.0131374      
0.668044       23.817         0.013049       
0.675039       23.4668        0.0129497      
0.682034       23.1193        0.0128558      
0.689029       22.7951        0.0127647      
0.696025       22.4418        0.0126676      
0.70302        22.1234        0.0125761      
0.710015       21.7503        0.0124653      
0.71701        21.4639        0.0123888      
0.724005       21.1056        0.012284       
0.731001       20.7841        0.0121871      
0.737996       20.4421        0.0120845      
0.744991       20.0994        0.0119884      
0.751986       19.8057        0.0119009      
0.758982       19.4757        0.011798       
0.765977       19.1534        0.0117005      
0.772972       18.8601        0.0116141      
0.779967       18.5093        0.0115007      
0.786962       18.2407        0.011416       
0.793958       17.9339        0.0113214      
0.800953       17.6314        0.0112227      
0.807948       17.3235        0.0111265      
0.814943       17.0255        0.0110309      
0.821939       16.7372        0.0109384      
0.828934       16.4499        0.0108438      
0.835929       16.1731        0.0107493      
0.842924       15.9025        0.0106614      
0.849919       15.612         0.0105627      
0.856915       15.3433        0.0104716      
0.86391        15.0784        0.0103804      
0.870905       14.811         0.0102895      
0.8779         14.5383        0.0101936      
0.884896       14.2699        0.0101007      
0.891891       14.0095        0.0100063      
0.898886       13.7547        0.00991542     
0.905881       13.5196        0.00983081     
0.912876       13.2766        0.0097419      
0.919872       13.024         0.00964778     
0.926867       12.8051        0.0095662      
0.933862       12.5658        0.00947382     
0.940857       12.3334        0.00938627     
0.947853       12.1031        0.0092973      
0.954848       11.8483        0.0092034      
0.961843       11.6486        0.00912666     
0.968838       11.4235        0.00903826     
0.975833       11.2005        0.00894607     
0.982829       11.0113        0.00887185     
0.989824       10.7942        0.00878519     
0.996819       10.5914        0.00870156     
1.00381        10.397         0.00861869     
1.01081        10.1857        0.00853309     
1.0178         9.97847        0.00844481     
1.0248         9.80722        0.00837366     
1.0318         9.62699        0.00829585     
1.03879        9.44289        0.00821451     
1.04579        9.24522        0.0081263      
1.05278        9.04705        0.00804193     
1.05978        8.88906        0.00797161     
1.06677        8.72025        0.00789725     
1.07377        8.53759        0.00781158     
1.08076        8.38411        0.00773937     
1.08776        8.21332        0.00765945     
1.09475        8.06685        0.00759384     
1.10175        7.88971        0.0075079      
1.10874        7.73672        0.00743642     
1.11574        7.55865        0.00735084     
1.12273        7.42422        0.00728751     
1.12973        7.28998        0.00721793     
1.13672        7.12275        0.00713388     
1.14372        6.99311        0.00707022     
1.15071        6.85652        0.00700133     
1.15771        6.71875        0.00692871     
1.1647         6.58391        0.00686084     
1.1717         6.42222        0.00677598     
1.17869        6.32678        0.00672469     
1.18569        6.17914        0.00664645     
1.19269        6.05663        0.0065791      
1.19968        5.941          0.00651645     
1.20668        5.80255        0.0064374      
1.21367        5.69163        0.00637776     
1.22067        5.571          0.00631021     
1.22766        5.45444        0.00624416     
1.23466        5.34955        0.0061832      
1.24165        5.23904        0.00611857     
1.24865        5.12877        0.00605571     
1.25564        5.03319        0.00599801     
1.26264        4.91894        0.00593009     
1.26963        4.82646        0.00587304     
1.27663        4.72297        0.00581029     
1.28362        4.62041        0.00574779     
1.29062        4.51325        0.00568054     
1.29761        4.43179        0.00562637     
1.30461        4.33933        0.00556801     
1.3116         4.24691        0.0055095      
1.3186         4.15587        0.00544844     
1.32559        4.06984        0.00539448     
1.33259        3.99365        0.00534348     
1.33959        3.8991         0.00527982     
1.34658        3.8169         0.00522181     
1.35358        3.74473        0.00517378     
1.36057        3.65246        0.00510913     
1.36757        3.5739         0.005054       
1.37456        3.51381        0.00501157     
1.38156        3.42798        0.00494982     
1.38855        3.36276        0.00490222     
1.39555        3.29066        0.00485018     
1.40254        3.20521        0.0047856      
1.40954        3.1552         0.00474939     
1.41653        3.0897         0.00469855     
1.42353        3.00821        0.00463657     
1.43052        2.94861        0.0045911      
1.43752        2.88954        0.00454595     
1.44451        2.82114        0.00449238     
1.45151        2.76045        0.0044421      
1.4585         2.70554        0.00439768     
1.4655         2.64624        0.00434984     
1.47249        2.58691        0.00430123     
1.47949        2.52777        0.00425122     
1.48648        2.47485        0.0042053      
1.49348        2.42437        0.00416347     
1.50048        2.36486        0.00411175     
1.50747        2.31648        0.00406877     
1.51447        2.26728        0.00402523     
1.52146        2.22231        0.00398589     
1.52846        2.16791        0.00393649     
1.53545        2.12594        0.00389772     
1.54245        2.07484        0.00385124     
1.54944        2.04024        0.00381868     
1.55644        1.99168        0.00377381     
1.56343        1.95435        0.0037371      
1.57043        1.9012         0.00368574     
1.57742        1.86081        0.00364648     
1.58442        1.81682        0.00360356     
1.59141        1.77919        0.00356671     
1.59841        1.74004        0.00352595     
1.6054         1.69791        0.00348353     
1.6124         1.66614        0.00345047     
1.61939        1.63183        0.00341523     
1.62639        1.58625        0.00336703     
1.63338        1.55249        0.00333204     
1.64038        1.52378        0.00330055     
1.64737        1.49106        0.00326462     
1.65437        1.4571         0.00322693     
1.66137        1.42752        0.00319505     
1.66836        1.39274        0.00315526     
1.67536        1.35946        0.00311847     
1.68235        1.33736        0.00309134     
1.68935        1.30227        0.00305019     
1.69634        1.27528        0.00301868     
1.70334        1.24166        0.00297901     
1.71033        1.21683        0.00294909     
1.71733        1.18875        0.00291509     
1.72432        1.16617        0.00288767     
1.73132        1.136          0.0028496      
1.73831        1.10914        0.00281656     
1.74531        1.08587        0.00278582     
1.7523         1.06603        0.00276003     
1.7593         1.0395         0.00272567     
1.76629        1.01529        0.00269403     
1.77329        0.997474       0.00266948     
1.78028        0.971427       0.00263496     
1.78728        0.949648       0.00260501     
1.79427        0.930035       0.00257848     
1.80127        0.907984       0.00254743     
1.80826        0.885076       0.00251494     
1.81526        0.869937       0.00249331     
1.82226        0.842668       0.00245452     
1.82925        0.827915       0.00243319     
1.83625        0.810353       0.00240699     
1.84324        0.792126       0.00237855     
1.85024        0.772399       0.00234994     
1.85723        0.751713       0.00231806     
1.86423        0.739533       0.00229918     
1.87122        0.718076       0.00226543     
1.87822        0.705224       0.00224497     
1.88521        0.690021       0.0022206      
1.89221        0.673753       0.00219463     
1.8992         0.6592         0.00217081     
1.9062         0.643789       0.00214519     
1.91319        0.628122       0.00211924     
1.92019        0.618415       0.00210259     
1.92718        0.601832       0.00207381     
1.93418        0.588123       0.00205045     
1.94117        0.572469       0.00202265     
1.94817        0.56282        0.00200584     
1.95516        0.545472       0.00197506     
1.96216        0.532921       0.00195158     
1.96915        0.523529       0.00193425     
1.97615        0.511406       0.00191218     
1.98315        0.497633       0.00188623     
1.99014        0.488691       0.0018687      
1.99714        0.476289       0.00184504     
2.00413        0.465318       0.00182389     
2.01113        0.453617       0.00180094     
2.01812        0.446269       0.00178588     
2.02512        0.437534       0.00176822     
2.03211        0.424447       0.00174158     
2.03911        0.416241       0.00172491     
2.0461         0.404433       0.00169999     
2.0531         0.395248       0.00168065     
2.06009        0.386907       0.00166328     
2.06709        0.377072       0.00164147     
2.07408        0.372011       0.00163063     
2.08108        0.362583       0.00161007     
2.08807        0.349975       0.0015814      
2.09507        0.343727       0.00156777     
2.10206        0.339367       0.00155752     
2.10906        0.329232       0.00153407     
2.11605        0.321984       0.00151706     
2.12305        0.3146         0.00149924     
2.13005        0.307438       0.00148235     
2.13704        0.299712       0.00146389     
2.14404        0.293264       0.00144774     
2.15103        0.286689       0.00143138     
2.15803        0.281135       0.00141718     
2.16502        0.26962        0.00138832     
2.17202        0.268741       0.00138628     
2.17901        0.260828       0.00136517     
2.18601        0.254102       0.00134762     
2.193          0.251043       0.00133952     
2.2            0.24298        0.00131779     
2.20699        0.237548       0.00130326     
2.21399        0.232058       0.00128785     
2.22098        0.227663       0.00127539     
2.22798        0.221137       0.0012574      
2.23497        0.216162       0.00124305     
2.24197        0.212252       0.00123175     
2.24896        0.205833       0.00121279     
2.25596        0.201209       0.00119917     
2.26295        0.195005       0.00118037     
2.26995        0.192832       0.00117401     
2.27694        0.187614       0.00115845     
2.28394        0.182618       0.00114235     
2.29094        0.17933        0.00113213     
2.29793        0.174641       0.00111745     
2.30493        0.170631       0.00110417     
2.31192        0.165742       0.00108864     
2.31892        0.164119       0.00108303     
2.32591        0.15938        0.00106741     
2.33291        0.155063       0.00105289     
2.3399         0.150832       0.00103821     
2.3469         0.147972       0.00102874     
2.35389        0.145478       0.00101971     
2.36089        0.140918       0.00100343     
2.36788        0.137758       0.000992543    
2.37488        0.13605        0.000986333    
2.38187        0.131525       0.000969621    
2.38887        0.127065       0.000952909    
2.39586        0.12803        0.000956621    
2.40286        0.122226       0.000934725    
2.40985        0.121797       0.000933087    
2.41685        0.115079       0.000907201    
2.42384        0.114364       0.000904215    
2.43084        0.112012       0.000894773    
2.43783        0.110061       0.00088713     
2.44483        0.106952       0.000874183    
2.45183        0.103199       0.000858847    
2.45882        0.10089        0.000849199    
2.46582        0.0986245      0.000839318    
2.47281        0.0969948      0.000832605    
2.47981        0.0931421      0.000815923    
2.4868         0.0933065      0.000816392    
2.4938         0.090862       0.00080576     
2.50079        0.0884532      0.000795211    
2.50779        0.0855155      0.000781586    
2.51478        0.0844934      0.000777035    
2.52178        0.0817058      0.000764389    
2.52877        0.0793685      0.000753191    
2.53577        0.077846       0.000745871    
2.54276        0.0768882      0.000741135    
2.54976        0.0742364      0.000728459    
2.55675        0.0723851      0.0007194      
2.56375        0.0696761      0.000705755    
2.57074        0.0695117      0.000704778    
2.57774        0.0666098      0.000690068    
2.58473        0.0649801      0.000681508    
2.59173        0.0653017      0.000683341    
2.59872        0.0623211      0.000667508    
2.60572        0.0606271      0.000658306    
2.61272        0.0588759      0.000648659    
2.61971        0.0575822      0.000641497    
2.62671        0.0571247      0.000638946    
2.6337         0.0557666      0.000631391    
2.6407         0.0538939      0.000620626    
2.64769        0.0533007      0.000617203    
2.65469        0.0522285      0.000611135    
2.66168        0.0518282      0.000608623    
2.66868        0.0494123      0.000594278    
2.67567        0.0488047      0.000590615    
2.68267        0.0459528      0.00057311     
2.68966        0.04606        0.000573867    
2.69666        0.0456812      0.000571325    
2.70365        0.0446591      0.00056499     
2.71065        0.042286       0.000549877    
2.71764        0.0418286      0.00054671     
2.72464        0.0404204      0.000537432    
2.73163        0.0394341      0.000530836    
2.73863        0.0386835      0.000525761    
2.74562        0.0378258      0.000519901    
2.75262        0.0369038      0.000513627    
2.75962        0.0362819      0.000509284    
2.76661        0.0350525      0.000500484    
2.77361        0.0346022      0.00049726     
2.7806         0.0344735      0.000496335    
2.7876         0.032608       0.000482827    
2.79459        0.0319075      0.000477617    
2.80159        0.0307567      0.000468821    
2.80858        0.0310712      0.000471212    
2.81558        0.0293415      0.00045791     
2.82257        0.0287339      0.000453258    
2.82957        0.0279191      0.000446676    
2.83656        0.0278905      0.000446561    
2.84356        0.0274473      0.000442886    
2.85055        0.0271471      0.000440458    
2.85755        0.0257604      0.000429064    
2.86454        0.0258033      0.000429421    
2.87154        0.0246311      0.000419555    
2.87853        0.0237948      0.000412372    
2.88553        0.0235161      0.00040995     
2.89252        0.0226369      0.000402215    
2.89952        0.0224796      0.000400943    
2.90651        0.0221294      0.000397681    
2.91351        0.021286       0.000390161    
2.92051        0.0204282      0.000382093    
2.9275         0.0200565      0.000378601    
2.9345         0.0198564      0.000376843    
2.94149        0.0192703      0.000371107    
2.94849        0.0190487      0.000368968    
2.95548        0.0180623      0.000359289    
2.96248        0.0182696      0.000361344    
2.96947        0.0178979      0.00035765     
2.97647        0.017419       0.000352834    
2.98346        0.0166757      0.000345224    
2.99046        0.0157465      0.000335469    
2.99745        0.0168758      0.000347436    
3.00445        0.0159109      0.000337215    
3.01144        0.0145957      0.000322979    
3.01844        0.0150245      0.000327689    
3.02543        0.0145599      0.000322583    
