p (GeV)        dN/dp          error          
0.00311568     0.000112335    3.00228e-05    
0.00934704     0.000746226    7.73798e-05    
0.0155784      0.00208622     0.000129381    
0.0218098      0.00454154     0.000190893    
0.0280411      0.00653148     0.000228924    
0.0342725      0.0101583      0.00028549     
0.0405038      0.0131994      0.000325426    
0.0467352      0.0190488      0.000390932    
0.0529666      0.0233577      0.000432889    
0.0591979      0.0302502      0.000492887    
0.0654293      0.0374637      0.000548212    
0.0716606      0.0443081      0.000596285    
0.077892       0.0512408      0.00064111     
0.0841234      0.0602356      0.000695179    
0.0903547      0.0710359      0.000754978    
0.0965861      0.0801671      0.000802072    
0.102817       0.0893384      0.000846584    
0.109049       0.101382       0.000901649    
0.11528        0.11276        0.000951204    
0.121512       0.125639       0.00100404     
0.127743       0.138926       0.00105602     
0.133974       0.150336       0.00109838     
0.140206       0.163696       0.00114588     
0.146437       0.178428       0.00119641     
0.152668       0.193337       0.0012458      
0.1589         0.208887       0.00129444     
0.165131       0.227711       0.001352       
0.171362       0.24205        0.00139368     
0.177594       0.258515       0.00144011     
0.183825       0.277243       0.00149134     
0.190056       0.295907       0.00154139     
0.196288       0.310887       0.00157971     
0.202519       0.329992       0.00162744     
0.208751       0.351232       0.00167846     
0.214982       0.37069        0.0017247      
0.221213       0.391054       0.00177148     
0.227445       0.411989       0.00181811     
0.233676       0.434392       0.00186691     
0.239907       0.454812       0.001911       
0.246139       0.475843       0.0019543      
0.25237        0.497556       0.00199831     
0.258601       0.522125       0.00204677     
0.264833       0.547722       0.0020966      
0.271064       0.566602       0.00213196     
0.277296       0.58602        0.00216856     
0.283527       0.61225        0.00221617     
0.289758       0.635287       0.00225777     
0.29599        0.65797        0.00229721     
0.302221       0.684995       0.00234451     
0.308452       0.711161       0.00238872     
0.314684       0.733668       0.00242669     
0.320915       0.758237       0.00246634     
0.327146       0.780006       0.00250168     
0.333378       0.808307       0.00254726     
0.339609       0.83367        0.00258632     
0.34584        0.859275       0.00262621     
0.352072       0.885601       0.00266601     
0.358303       0.912369       0.00270602     
0.364535       0.934668       0.00273834     
0.370766       0.959494       0.00277503     
0.376997       0.980741       0.00280507     
0.383229       1.01266        0.00285095     
0.38946        1.03989        0.00288872     
0.395691       1.06269        0.00292074     
0.401923       1.08516        0.00295038     
0.408154       1.10818        0.00298189     
0.414385       1.13421        0.003017       
0.420617       1.16511        0.00305782     
0.426848       1.18787        0.00308742     
0.43308        1.21447        0.00312182     
0.439311       1.23674        0.00315015     
0.445542       1.26395        0.00318499     
0.451774       1.28693        0.00321396     
0.458005       1.31215        0.00324438     
0.464236       1.33446        0.00327165     
0.470468       1.35735        0.00330029     
0.476699       1.38619        0.00333538     
0.48293        1.40356        0.00335659     
0.489162       1.4312         0.00338862     
0.495393       1.45206        0.00341383     
0.501624       1.48346        0.00345069     
0.507856       1.49459        0.0034632      
0.514087       1.52573        0.00349841     
0.520319       1.54827        0.00352413     
0.52655        1.56335        0.00354169     
0.532781       1.58784        0.0035695      
0.539013       1.61207        0.00359565     
0.545244       1.63202        0.00361862     
0.551475       1.6519         0.00364024     
0.557707       1.67068        0.00366097     
0.563938       1.6883         0.00368034     
0.570169       1.70867        0.00370304     
0.576401       1.72785        0.00372401     
0.582632       1.75961        0.003757       
0.588864       1.76327        0.00376123     
0.595095       1.78383        0.00378349     
0.601326       1.81798        0.0038195      
0.607558       1.82548        0.00382724     
0.613789       1.84312        0.00384577     
0.62002        1.865          0.00386731     
0.626252       1.8764         0.0038801      
0.632483       1.89379        0.00389742     
0.638714       1.90556        0.00391041     
0.644946       1.92862        0.00393458     
0.651177       1.94           0.00394595     
0.657408       1.95251        0.00395844     
0.66364        1.96508        0.00397104     
0.669871       1.97389        0.00398003     
0.676103       1.99061        0.0039962      
0.682334       2.00172        0.00400884     
0.688565       2.01434        0.00402091     
0.694797       2.0303         0.00403679     
0.701028       2.03879        0.00404367     
0.707259       2.05401        0.00406141     
0.713491       2.06502        0.00407003     
0.719722       2.07287        0.00407727     
0.725953       2.07643        0.0040821      
0.732185       2.08856        0.00409348     
0.738416       2.09358        0.00409883     
0.744648       2.09961        0.00410472     
0.750879       2.10716        0.00411258     
0.75711        2.12319        0.00412858     
0.763342       2.12609        0.00412895     
0.769573       2.13738        0.00414124     
0.775804       2.1413         0.00414486     
0.782036       2.14812        0.00415194     
0.788267       2.15619        0.00415981     
0.794498       2.16247        0.00416605     
0.80073        2.16389        0.00416757     
0.806961       2.16478        0.00416682     
0.813192       2.1625         0.00416607     
0.819424       2.17161        0.00417508     
0.825655       2.17595        0.00417907     
0.831887       2.18213        0.00418461     
0.838118       2.18443        0.00418552     
0.844349       2.18452        0.00418636     
0.850581       2.18342        0.00418502     
0.856812       2.18867        0.00419004     
0.863043       2.1832         0.00418574     
0.869275       2.18321        0.00418392     
0.875506       2.18715        0.00418862     
0.881737       2.18417        0.00418668     
0.887969       2.18241        0.00418472     
0.8942         2.18369        0.00418583     
0.900432       2.17962        0.00418279     
0.906663       2.17251        0.00417472     
0.912894       2.18122        0.00418356     
0.919126       2.17592        0.00417918     
0.925357       2.16535        0.00416834     
0.931588       2.16672        0.0041692      
0.93782        2.1553         0.00415833     
0.944051       2.15659        0.00415915     
0.950282       2.15662        0.00416013     
0.956514       2.14777        0.00415037     
0.962745       2.149          0.00415224     
0.968976       2.13937        0.00414272     
0.975208       2.13338        0.00413775     
0.981439       2.12738        0.00413199     
0.987671       2.11968        0.00412524     
0.993902       2.11307        0.00411793     
1.00013        2.10861        0.00411288     
1.00636        2.09656        0.00410191     
1.0126         2.10055        0.00410605     
1.01883        2.08371        0.00408892     
1.02506        2.078          0.00408422     
1.03129        2.07449        0.00407912     
1.03752        2.06156        0.004065       
1.04375        2.04975        0.00405427     
1.04998        2.04578        0.00405157     
1.05622        2.04203        0.00404887     
1.06245        2.02701        0.00403296     
1.06868        2.01738        0.00402304     
1.07491        2.00402        0.00401003     
1.08114        1.99868        0.00400451     
1.08737        1.99063        0.0039972      
1.0936         1.97923        0.0039853      
1.09984        1.9621         0.0039681      
1.10607        1.9515         0.00395708     
1.1123         1.94598        0.0039509      
1.11853        1.9363         0.00394211     
1.12476        1.92399        0.00392998     
1.13099        1.92025        0.00392585     
1.13722        1.89717        0.00390064     
1.14345        1.88786        0.00389323     
1.14969        1.87347        0.00387636     
1.15592        1.87           0.00387345     
1.16215        1.85859        0.00386152     
1.16838        1.84569        0.00384757     
1.17461        1.83119        0.00383344     
1.18084        1.81561        0.00381722     
1.18707        1.80067        0.00380059     
1.19331        1.7893         0.00378937     
1.19954        1.77627        0.00377498     
1.20577        1.76741        0.00376588     
1.212          1.75255        0.00375071     
1.21823        1.74029        0.00373689     
1.22446        1.73075        0.00372664     
1.23069        1.7162         0.00371118     
1.23692        1.70588        0.00369936     
1.24316        1.69257        0.00368582     
1.24939        1.67275        0.00366363     
1.25562        1.66472        0.0036547      
1.26185        1.64771        0.00363655     
1.26808        1.63531        0.00362187     
1.27431        1.622          0.0036077      
1.28054        1.61155        0.00359682     
1.28678        1.59701        0.00358015     
1.29301        1.59599        0.00357797     
1.29924        1.57714        0.00355717     
1.30547        1.55898        0.00353659     
1.3117         1.54116        0.00351694     
1.31793        1.52892        0.00350211     
1.32416        1.52003        0.00349295     
1.3304         1.50339        0.00347378     
1.33663        1.48959        0.00345822     
1.34286        1.48083        0.00344836     
1.34909        1.46869        0.00343295     
1.35532        1.45025        0.00341072     
1.36155        1.43717        0.00339627     
1.36778        1.43012        0.00338699     
1.37401        1.41654        0.00337148     
1.38025        1.3968         0.00334812     
1.38648        1.38706        0.00333569     
1.39271        1.37741        0.00332429     
1.39894        1.35612        0.00329808     
1.40517        1.34828        0.00328958     
1.4114         1.33265        0.00327026     
1.41763        1.31797        0.00325224     
1.42387        1.30862        0.00324046     
1.4301         1.28861        0.00321525     
1.43633        1.27585        0.00319964     
1.44256        1.26679        0.00318891     
1.44879        1.24773        0.00316385     
1.45502        1.23835        0.00315234     
1.46125        1.22881        0.00313991     
1.46749        1.21271        0.00311976     
1.47372        1.19827        0.00310069     
1.47995        1.18578        0.00308518     
1.48618        1.17906        0.00307604     
1.49241        1.16611        0.00305916     
1.49864        1.14943        0.00303661     
1.50487        1.14209        0.00302855     
1.5111         1.12411        0.00300427     
1.51734        1.10918        0.00298325     
1.52357        1.09709        0.00296701     
1.5298         1.08956        0.00295665     
1.53603        1.07758        0.00294044     
1.54226        1.05956        0.00291623     
1.54849        1.05064        0.00290334     
1.55472        1.04358        0.00289365     
1.56096        1.02936        0.0028741      
1.56719        1.01633        0.00285604     
1.57342        1.00282        0.00283739     
1.57965        0.993627       0.00282354     
1.58588        0.974282       0.00279609     
1.59211        0.96767        0.00278631     
1.59834        0.960785       0.00277601     
1.60458        0.946431       0.00275563     
1.61081        0.938062       0.00274363     
1.61704        0.919422       0.00271622     
1.62327        0.91082        0.00270359     
1.6295         0.90522        0.00269545     
1.63573        0.895053       0.00267946     
1.64196        0.882705       0.00266136     
1.64819        0.867796       0.00263872     
1.65443        0.860847       0.00262788     
1.66066        0.850135       0.00261167     
1.66689        0.841438       0.00259849     
1.67312        0.829755       0.00258051     
1.67935        0.817189       0.00256029     
1.68558        0.807015       0.00254504     
1.69181        0.801013       0.00253462     
1.69805        0.784612       0.00250922     
1.70428        0.773555       0.00249188     
1.71051        0.765876       0.00247865     
1.71674        0.756697       0.00246446     
1.72297        0.747084       0.00244836     
1.7292         0.738892       0.00243489     
1.73543        0.731108       0.00242207     
1.74167        0.718142       0.00240061     
1.7479         0.711378       0.00238911     
1.75413        0.704541       0.00237781     
1.76036        0.691109       0.00235497     
1.76659        0.681697       0.00233879     
1.77282        0.673063       0.00232384     
1.77905        0.660578       0.00230228     
1.78528        0.656301       0.00229482     
1.79152        0.646336       0.00227725     
1.79775        0.635824       0.00225823     
1.80398        0.628675       0.00224548     
1.81021        0.623812       0.00223728     
1.81644        0.612378       0.00221637     
1.82267        0.605871       0.00220562     
1.8289         0.596804       0.0021886      
1.83514        0.587994       0.00217245     
1.84137        0.581695       0.00216021     
1.8476         0.571785       0.00214208     
1.85383        0.564387       0.00212779     
1.86006        0.554967       0.00211017     
1.86629        0.553154       0.00210656     
1.87252        0.542723       0.00208744     
1.87876        0.534578       0.0020714      
1.88499        0.522631       0.00204819     
1.89122        0.516613       0.0020354      
1.89745        0.512504       0.00202791     
1.90368        0.502218       0.00200794     
1.90991        0.496641       0.00199584     
1.91614        0.48938        0.00198079     
1.92237        0.484766       0.00197236     
1.92861        0.477889       0.00195811     
1.93484        0.465685       0.00193289     
1.94107        0.465348       0.0019319      
1.9473         0.454909       0.0019111      
1.95353        0.449348       0.00189874     
1.95976        0.440401       0.00187954     
1.96599        0.433758       0.0018658      
1.97223        0.431415       0.00186047     
1.97846        0.426408       0.00184994     
1.98469        0.419908       0.00183562     
1.99092        0.40788        0.001809       
1.99715        0.40293        0.00179782     
2.00338        0.398139       0.00178759     
2.00961        0.392097       0.00177408     
2.01584        0.38774        0.00176355     
2.02208        0.384723       0.00175693     
2.02831        0.374581       0.00173362     
2.03454        0.373241       0.0017306      
2.04077        0.364559       0.00171026     
2.047          0.362449       0.0017057      
2.05323        0.353262       0.00168367     
2.05946        0.350429       0.00167736     
2.0657         0.343954       0.00166167     
2.07193        0.338177       0.00164749     
2.07816        0.333467       0.00163548     
2.08439        0.330417       0.00162861     
2.09062        0.323653       0.001612       
2.09685        0.318743       0.00159934     
2.10308        0.314386       0.00158903     
2.10932        0.307838       0.00157165     
2.11555        0.306907       0.00156949     
2.12178        0.299525       0.00155025     
2.12801        0.29642        0.0015418      
2.13424        0.290065       0.00152545     
2.14047        0.284898       0.00151189     
2.1467         0.280501       0.00150043     
2.15293        0.277981       0.00149379     
2.15917        0.274755       0.00148522     
2.1654         0.269813       0.00147132     
2.17163        0.266667       0.00146262     
2.17786        0.26369        0.0014545      
2.18409        0.256798       0.00143556     
2.19032        0.253107       0.00142542     
2.19655        0.246632       0.00140668     
2.20279        0.246375       0.00140609     
2.20902        0.239354       0.00138574     
2.21525        0.233986       0.0013703      
2.22148        0.232614       0.00136577     
2.22771        0.227085       0.00134976     
2.23394        0.225472       0.00134464     
2.24017        0.224108       0.00134072     
2.24641        0.217729       0.00132164     
2.25264        0.216357       0.00131763     
2.25887        0.212458       0.00130553     
2.2651         0.209561       0.00129692     
2.27133        0.205742       0.00128463     
2.27756        0.202693       0.00127515     
2.28379        0.201978       0.00127311     
2.29002        0.193954       0.00124732     
2.29626        0.192719       0.00124387     
2.30249        0.189333       0.0012324      
2.30872        0.18764        0.001227       
2.31495        0.183202       0.00121254     
2.32118        0.178621       0.00119764     
2.32741        0.17911        0.00119885     
2.33364        0.174601       0.00118353     
2.33988        0.17156        0.0011732      
2.34611        0.167973       0.00116084     
2.35234        0.166352       0.00115552     
2.35857        0.16376        0.00114639     
2.3648         0.15881        0.00112885     
2.37103        0.158264       0.0011268      
2.37726        0.153514       0.00110973     
2.3835         0.153393       0.00110947     
2.38973        0.151083       0.00110093     
2.39596        0.146806       0.00108532     
2.40219        0.143949       0.00107484     
2.40842        0.142561       0.00106972     
2.41465        0.140186       0.00106079     
2.42088        0.139697       0.00105882     
2.42711        0.136551       0.00104685     
2.43335        0.135227       0.00104202     
2.43958        0.130662       0.00102395     
2.44581        0.130084       0.0010215      
2.45204        0.128583       0.00101566     
2.45827        0.125302       0.00100257     
2.4645         0.124732       0.00100068     
2.47073        0.120584       0.000983732    
2.47697        0.117518       0.000970971    
2.4832         0.117952       0.000972757    
2.48943        0.114044       0.000956327    
2.49566        0.113819       0.000955789    
2.50189        0.110401       0.000941215    
2.50812        0.109302       0.000936456    
2.51435        0.105763       0.000921122    
2.52059        0.105667       0.000920703    
2.52682        0.103412       0.000910909    
2.53305        0.101992       0.000904711    
2.53928        0.100957       0.0008999      
2.54551        0.098245       0.00088796     
2.55174        0.0963514      0.000879299    
2.55797        0.0953724      0.000874753    
2.5642         0.0920265      0.000859139    
2.57044        0.0923715      0.000860896    
2.57667        0.090518       0.000852073    
2.5829         0.0882392      0.000841211    
2.58913        0.0864819      0.000833029    
2.59536        0.0849814      0.000825701    
2.60159        0.0840908      0.000821288    
2.60782        0.082831       0.000815275    
2.61406        0.0812583      0.000807507    
2.62029        0.0790116      0.000796359    
2.62652        0.0780407      0.000791294    
2.63275        0.0771822      0.000786933    
2.63898        0.0762755      0.000782302    
2.64521        0.0747509      0.000774451    
2.65144        0.0734511      0.00076761     
2.65768        0.072095       0.000760496    
2.66391        0.0715895      0.000757912    
2.67014        0.0702094      0.000750492    
2.67637        0.0689095      0.000743516    
2.6826         0.0669517      0.000732973    
2.68883        0.0666307      0.000731215    
2.69506        0.064721       0.000720759    
