p (GeV)        dN/dp          error          
0.00249368     0.0035991      0.000189952    
0.00748103     0.0259055      0.000509784    
0.0124684      0.0686135      0.000829483    
0.0174557      0.135753       0.00116664     
0.0224431      0.216858       0.0014745      
0.0274304      0.327548       0.00181142     
0.0324178      0.458319       0.00214307     
0.0374052      0.60503        0.00246256     
0.0423925      0.780464       0.00279742     
0.0473799      0.970815       0.0031204      
0.0523672      1.18701        0.00344939     
0.0573546      1.41251        0.00376408     
0.0623419      1.668          0.00408951     
0.0673293      1.93013        0.00439851     
0.0723166      2.22015        0.00471873     
0.077304       2.51897        0.00502505     
0.0822913      2.85085        0.00534588     
0.0872787      3.17969        0.00564684     
0.092266       3.5392         0.00595843     
0.0972534      3.91108        0.0062612      
0.102241       4.289          0.00655762     
0.107228       4.68843        0.00685557     
0.112215       5.09909        0.00714765     
0.117203       5.51178        0.00743256     
0.12219        5.96335        0.00773022     
0.127178       6.3885         0.00800389     
0.132165       6.8507         0.00828649     
0.137152       7.32781        0.00857242     
0.14214        7.78582        0.00883524     
0.147127       8.27716        0.00910984     
0.152114       8.77104        0.00937682     
0.157102       9.2686         0.00964042     
0.162089       9.76781        0.00989632     
0.167076       10.2943        0.010157       
0.172064       10.7966        0.0104039      
0.177051       11.3143        0.0106493      
0.182038       11.836         0.0108966      
0.187026       12.3546        0.0111303      
0.192013       12.8799        0.0113645      
0.197          13.4239        0.0116027      
0.201988       13.9357        0.0118171      
0.206975       14.4437        0.0120297      
0.211963       14.9743        0.0122506      
0.21695        15.4938        0.0124592      
0.221937       16.0099        0.0126709      
0.226925       16.5224        0.0128748      
0.231912       17.0541        0.0130741      
0.236899       17.5676        0.0132674      
0.241887       18.075         0.0134622      
0.246874       18.5552        0.0136398      
0.251861       19.0721        0.0138297      
0.256849       19.5232        0.0139909      
0.261836       20.034         0.0141738      
0.266823       20.5138        0.0143377      
0.271811       20.9549        0.0144896      
0.276798       21.4069        0.0146487      
0.281786       21.8672        0.0148089      
0.286773       22.3132        0.0149545      
0.29176        22.761         0.0151043      
0.296748       23.1546        0.0152392      
0.301735       23.6011        0.0153829      
0.306722       23.987         0.0155019      
0.31171        24.3916        0.0156362      
0.316697       24.816         0.0157755      
0.321684       25.1493        0.015877       
0.326672       25.5664        0.0160099      
0.331659       25.9161        0.0161157      
0.336646       26.2525        0.0162245      
0.341634       26.6006        0.0163235      
0.346621       26.9316        0.0164343      
0.351608       27.2105        0.0165164      
0.356596       27.5531        0.0166205      
0.361583       27.8126        0.0166986      
0.366571       28.1284        0.0167879      
0.371558       28.3471        0.0168552      
0.376545       28.6289        0.0169459      
0.381533       28.8904        0.0170209      
0.38652        29.1042        0.0170836      
0.391507       29.3416        0.0171547      
0.396495       29.5947        0.0172264      
0.401482       29.7662        0.0172762      
0.406469       29.9558        0.0173301      
0.411457       30.1613        0.0173894      
0.416444       30.3489        0.0174409      
0.421431       30.4884        0.0174806      
0.426419       30.6868        0.0175372      
0.431406       30.8068        0.0175764      
0.436393       30.9264        0.0176096      
0.441381       31.0281        0.0176411      
0.446368       31.1993        0.0176853      
0.451356       31.2792        0.0177056      
0.456343       31.364         0.0177303      
0.46133        31.4252        0.0177542      
0.466318       31.5338        0.0177822      
0.471305       31.6118        0.0178009      
0.476292       31.6678        0.017821       
0.48128        31.6897        0.0178245      
0.486267       31.7461        0.017837       
0.491254       31.7617        0.017846       
0.496242       31.7922        0.0178503      
0.501229       31.7675        0.0178449      
0.506216       31.774         0.0178462      
0.511204       31.8093        0.0178552      
0.516191       31.8009        0.0178581      
0.521178       31.769         0.017847       
0.526166       31.7564        0.01784        
0.531153       31.7433        0.0178423      
0.536141       31.711         0.0178268      
0.541128       31.6254        0.0178063      
0.546115       31.5986        0.0177978      
0.551103       31.534         0.0177758      
0.55609        31.4572        0.0177598      
0.561077       31.4106        0.0177453      
0.566065       31.294         0.0177122      
0.571052       31.2384        0.0176965      
0.576039       31.175         0.0176829      
0.581027       31.062         0.0176493      
0.586014       31.0069        0.0176288      
0.591001       30.8583        0.0175924      
0.595989       30.7319        0.0175524      
0.600976       30.6313        0.017523       
0.605964       30.4909        0.0174826      
0.610951       30.3701        0.0174436      
0.615938       30.2653        0.0174149      
0.620926       30.1076        0.0173754      
0.625913       29.9927        0.0173462      
0.6309         29.8433        0.0172911      
0.635888       29.7084        0.0172607      
0.640875       29.5468        0.017206       
0.645862       29.3963        0.0171666      
0.65085        29.2644        0.0171277      
0.655837       29.1185        0.0170855      
0.660824       28.9449        0.017034       
0.665812       28.8047        0.0169921      
0.670799       28.6051        0.0169301      
0.675786       28.4502        0.0168923      
0.680774       28.2493        0.0168293      
0.685761       28.1154        0.0167885      
0.690749       27.9104        0.0167266      
0.695736       27.7162        0.016674       
0.700723       27.5518        0.0166222      
0.705711       27.3599        0.0165627      
0.710698       27.2017        0.0165098      
0.715685       27.0009        0.0164546      
0.720673       26.8172        0.0163946      
0.72566        26.6415        0.0163449      
0.730647       26.4514        0.0162848      
0.735635       26.2796        0.0162329      
0.740622       26.0605        0.0161649      
0.745609       25.8645        0.0161038      
0.750597       25.6532        0.0160362      
0.755584       25.4741        0.0159817      
0.760571       25.2819        0.0159156      
0.765559       25.0887        0.0158633      
0.770546       24.8642        0.0157868      
0.775534       24.6995        0.0157356      
0.780521       24.4887        0.0156651      
0.785508       24.2799        0.0155979      
0.790496       24.0801        0.0155391      
0.795483       23.8829        0.0154739      
0.80047        23.6837        0.0154129      
0.805458       23.4465        0.0153325      
0.810445       23.306         0.0152831      
0.815432       23.0654        0.0152067      
0.82042        22.8617        0.0151388      
0.825407       22.6632        0.0150721      
0.830394       22.4479        0.0150006      
0.835382       22.2413        0.0149307      
0.840369       22.0689        0.0148751      
0.845357       21.8536        0.0148007      
0.850344       21.6402        0.014725       
0.855331       21.4654        0.0146678      
0.860319       21.2598        0.0146029      
0.865306       21.0804        0.014538       
0.870293       20.8474        0.014457       
0.875281       20.6622        0.0143924      
0.880268       20.4691        0.0143259      
0.885255       20.2452        0.0142466      
0.890243       20.0433        0.0141755      
0.89523        19.902         0.0141234      
0.900217       19.6852        0.0140485      
0.905205       19.5102        0.0139837      
0.910192       19.2769        0.0138983      
0.915179       19.0947        0.013835       
0.920167       18.8834        0.0137574      
0.925154       18.7142        0.0136996      
0.930142       18.5032        0.0136212      
0.935129       18.3175        0.01355        
0.940116       18.151         0.0134905      
0.945104       17.9457        0.0134113      
0.950091       17.7812        0.013352       
0.955078       17.5639        0.0132685      
0.960066       17.399         0.0132042      
0.965053       17.2017        0.0131319      
0.97004        17.0359        0.0130698      
0.975028       16.8341        0.0129898      
0.980015       16.645         0.0129169      
0.985002       16.4768        0.012852       
0.98999        16.2911        0.0127816      
0.994977       16.1294        0.0127165      
0.999964       15.9428        0.0126432      
1.00495        15.7595        0.0125711      
1.00994        15.6086        0.01251        
1.01493        15.4464        0.0124452      
1.01991        15.2508        0.012363       
1.0249         15.09          0.0123004      
1.02989        14.9226        0.0122302      
1.03488        14.7507        0.0121596      
1.03986        14.57          0.0120864      
1.04485        14.4149        0.0120232      
1.04984        14.2578        0.0119556      
1.05483        14.0913        0.0118827      
1.05981        13.9272        0.0118166      
1.0648         13.7558        0.0117442      
1.06979        13.6042        0.0116791      
1.07477        13.4687        0.0116211      
1.07976        13.3026        0.0115488      
1.08475        13.1388        0.0114803      
1.08974        12.9947        0.0114127      
1.09472        12.8419        0.0113437      
1.09971        12.6588        0.0112648      
1.1047         12.5568        0.011217       
1.10969        12.3858        0.0111439      
1.11467        12.2296        0.0110732      
1.11966        12.107         0.0110193      
1.12465        11.9595        0.0109503      
1.12964        11.8202        0.0108852      
1.13462        11.6488        0.0108084      
1.13961        11.527         0.0107514      
1.1446         11.3878        0.0106805      
1.14959        11.2667        0.0106268      
1.15457        11.1188        0.0105568      
1.15956        10.9743        0.0104918      
1.16455        10.8461        0.0104288      
1.16953        10.704         0.0103589      
1.17452        10.5853        0.0103031      
1.17951        10.4631        0.0102395      
1.1845         10.333         0.0101772      
1.18948        10.1875        0.0101055      
1.19447        10.0773        0.0100535      
1.19946        9.94767        0.00998297     
1.20445        9.81894        0.00992427     
1.20943        9.69137        0.00985695     
1.21442        9.54628        0.00978        
1.21941        9.45408        0.00973637     
1.2244         9.3415         0.00967751     
1.22938        9.21597        0.00961251     
1.23437        9.09961        0.00955255     
1.23936        8.98688        0.00949026     
1.24434        8.86618        0.0094272      
1.24933        8.74545        0.00936239     
1.25432        8.65231        0.00931576     
1.25931        8.54982        0.00925753     
1.26429        8.44031        0.00919691     
1.26928        8.32025        0.00913036     
1.27427        8.21491        0.00907483     
1.27926        8.11365        0.00901855     
1.28424        7.99615        0.00895637     
1.28923        7.90232        0.00890285     
1.29422        7.80243        0.00884446     
1.29921        7.69899        0.00878713     
1.30419        7.59295        0.00872541     
1.30918        7.50177        0.00867175     
1.31417        7.39132        0.00860626     
1.31916        7.31742        0.00856576     
1.32414        7.23014        0.00851461     
1.32913        7.11954        0.00844688     
1.33412        7.02828        0.00839429     
1.3391         6.92429        0.00833111     
1.34409        6.84582        0.00828424     
1.34908        6.74666        0.00822231     
1.35407        6.65434        0.00816563     
1.35905        6.56992        0.00811501     
1.36404        6.49135        0.00806788     
1.36903        6.39106        0.00800325     
1.37402        6.31592        0.00795686     
1.379          6.22377        0.00789819     
1.38399        6.15246        0.00785445     
1.38898        6.06358        0.00779377     
1.39397        5.98209        0.00774714     
1.39895        5.88869        0.00768346     
1.40394        5.81907        0.00763569     
1.40893        5.73683        0.00758411     
1.41391        5.66184        0.00753549     
1.4189         5.58536        0.00748384     
1.42389        5.51844        0.00743768     
1.42888        5.44676        0.00738986     
1.43386        5.36134        0.00733263     
1.43885        5.28446        0.00727743     
1.44384        5.23007        0.00724136     
1.44883        5.14489        0.00718059     
1.45381        5.08072        0.00713446     
1.4588         5.00183        0.00708094     
1.46379        4.94672        0.00704271     
1.46878        4.87118        0.0069883      
1.47376        4.80689        0.00694001     
1.47875        4.73914        0.0068911      
1.48374        4.67536        0.00684787     
1.48873        4.60554        0.00679448     
1.49371        4.54479        0.00674997     
1.4987         4.48023        0.00670081     
1.50369        4.41155        0.00665229     
1.50867        4.36646        0.00661759     
1.51366        4.29937        0.00656533     
1.51865        4.25086        0.00652936     
1.52364        4.17793        0.00647076     
1.52862        4.12586        0.0064314      
1.53361        4.06402        0.00638041     
1.5386         4.00719        0.0063365      
1.54359        3.96073        0.00630091     
1.54857        3.88622        0.00624133     
1.55356        3.84106        0.00620529     
1.55855        3.80044        0.00617397     
1.56354        3.72879        0.0061138      
1.56852        3.68937        0.00608124     
1.57351        3.6289         0.00603266     
1.5785         3.58635        0.00599561     
1.58348        3.52815        0.00594628     
1.58847        3.48264        0.00590873     
1.59346        3.43758        0.0058698      
1.59845        3.38258        0.00582407     
1.60343        3.33513        0.00578319     
1.60842        3.27586        0.00573086     
1.61341        3.25053        0.00570853     
1.6184         3.19242        0.00565769     
1.62338        3.1533         0.00562139     
1.62837        3.1027         0.00557796     
1.63336        3.06402        0.00554166     
1.63835        3.0193         0.00550134     
1.64333        2.96916        0.00545611     
1.64832        2.93521        0.00542416     
1.65331        2.89309        0.00538653     
1.6583         2.83839        0.00533461     
1.66328        2.81334        0.00531076     
1.66827        2.77058        0.0052706      
1.67326        2.72505        0.00522558     
1.67824        2.68732        0.00519005     
1.68323        2.65956        0.00516418     
1.68822        2.60923        0.00511396     
1.69321        2.57146        0.0050782      
1.69819        2.53676        0.00504353     
1.70318        2.50736        0.0050132      
1.70817        2.466          0.00497176     
1.71316        2.42899        0.00493467     
1.71814        2.38856        0.00489344     
1.72313        2.35295        0.00485637     
1.72812        2.32962        0.00483311     
1.73311        2.28338        0.00478534     
1.73809        2.26227        0.00476253     
1.74308        2.22487        0.00472278     
1.74807        2.19377        0.00469        
1.75305        2.16198        0.00465638     
1.75804        2.12561        0.00461612     
1.76303        2.08717        0.00457437     
1.76802        2.06788        0.00455325     
1.773          2.03443        0.00451592     
1.77799        2.00714        0.00448623     
1.78298        1.97301        0.00444768     
1.78797        1.94692        0.00441838     
1.79295        1.91588        0.00438237     
1.79794        1.89227        0.00435618     
1.80293        1.86758        0.00432783     
1.80792        1.8349         0.0042893      
1.8129         1.80436        0.00425359     
1.81789        1.78279        0.00422798     
1.82288        1.75704        0.00419585     
1.82787        1.73043        0.00416374     
1.83285        1.70628        0.00413693     
1.83784        1.68013        0.00410403     
1.84283        1.65879        0.00407895     
1.84781        1.62766        0.00403919     
1.8528         1.60093        0.00400705     
1.85779        1.58061        0.0039818      
1.86278        1.56074        0.00395509     
1.86776        1.53693        0.00392578     
1.87275        1.51702        0.00390023     
1.87774        1.48526        0.00385981     
1.88273        1.46837        0.00383822     
1.88771        1.44138        0.00380173     
1.8927         1.41685        0.00376796     
1.89769        1.40074        0.00374742     
1.90268        1.37773        0.00371686     
1.90766        1.35655        0.00368809     
1.91265        1.34045        0.00366479     
1.91764        1.32407        0.00364363     
1.92262        1.30059        0.00361072     
1.92761        1.28336        0.00358703     
1.9326         1.2616         0.00355641     
1.93759        1.25224        0.00354349     
1.94257        1.22874        0.00350953     
1.94756        1.20471        0.00347552     
1.95255        1.19428        0.00345973     
1.95754        1.1734         0.0034299      
1.96252        1.15021        0.00339689     
1.96751        1.13486        0.00337261     
1.9725         1.12142        0.00335246     
1.97749        1.10407        0.00332787     
1.98247        1.07831        0.00328709     
1.98746        1.07106        0.00327687     
1.99245        1.05899        0.00325917     
1.99744        1.03867        0.00322666     
2.00242        1.01594        0.00319045     
2.00741        1.00907        0.00318105     
2.0124         0.986084       0.00314383     
2.01738        0.977603       0.00313038     
2.02237        0.963367       0.00310766     
2.02736        0.950715       0.00308767     
2.03235        0.930523       0.00305417     
2.03733        0.914112       0.00302793     
2.04232        0.898061       0.00300091     
2.04731        0.890312       0.00298792     
2.0523         0.876457       0.00296371     
2.05728        0.863715       0.00294203     
2.06227        0.854902       0.00292734     
2.06726        0.831343       0.00288637     
2.07225        0.82254        0.00287138     
2.07723        0.815483       0.00285966     
2.08222        0.796745       0.00282571     
2.08721        0.792083       0.002818       
2.0922         0.769356       0.00277734     
2.09718        0.765055       0.00277021     
2.10217        0.756934       0.00275486     
2.10716        0.743691       0.00273014     
2.11214        0.733295       0.00271131     
2.11713        0.715069       0.00267776     
2.12212        0.706357       0.00266061     
2.12711        0.699299       0.00264794     
2.13209        0.688411       0.00262713     
2.13708        0.674797       0.00260073     
2.14207        0.667478       0.00258754     
2.14706        0.654395       0.0025611      
2.15204        0.645683       0.00254438     
2.15703        0.633613       0.00252028     
