pT (GeV)       dN/dpt         error          
0.00349368     0.630797       0.00212429     
0.010481       1.87948        0.00366793     
0.0174684      3.13599        0.00473854     
0.0244557      4.38878        0.00560381     
0.0314431      5.6366         0.00635151     
0.0384304      6.8543         0.00700364     
0.0454178      8.10105        0.00761404     
0.0524052      9.29609        0.00815746     
0.0593925      10.5089        0.00867131     
0.0663799      11.6772        0.00914021     
0.0733672      12.8444        0.00958834     
0.0803546      13.9972        0.0100051      
0.0873419      15.1127        0.0104012      
0.0943293      16.2264        0.0107734      
0.101317       17.3004        0.0111261      
0.108304       18.3674        0.0114642      
0.115291       19.3887        0.0117772      
0.122279       20.3969        0.0120813      
0.129266       21.3884        0.0123705      
0.136253       22.3144        0.0126345      
0.143241       23.2271        0.0128901      
0.150228       24.112         0.0131348      
0.157215       24.9721        0.0133684      
0.164203       25.8095        0.0135927      
0.17119        26.6115        0.0137993      
0.178178       27.3354        0.0139822      
0.185165       28.0771        0.0141731      
0.192152       28.7944        0.0143506      
0.19914        29.4372        0.0145107      
0.206127       30.0668        0.0146681      
0.213114       30.6693        0.0148116      
0.220102       31.2145        0.0149376      
0.227089       31.7654        0.015078       
0.234076       32.2576        0.0151961      
0.241064       32.6692        0.0152897      
0.248051       33.1078        0.0153877      
0.255038       33.5415        0.0154911      
0.262026       33.921         0.0155803      
0.269013       34.227         0.015648       
0.276          34.5333        0.0157173      
0.282988       34.8344        0.0157905      
0.289975       35.0572        0.0158388      
0.296963       35.2416        0.0158818      
0.30395        35.4756        0.0159313      
0.310937       35.6339        0.0159746      
0.317925       35.7211        0.0159852      
0.324912       35.8438        0.0160142      
0.331899       35.9777        0.0160427      
0.338887       36.0361        0.0160551      
0.345874       36.0461        0.016061       
0.352861       36.046         0.0160625      
0.359849       36.0592        0.0160644      
0.366836       35.9978        0.0160505      
0.373823       35.9889        0.0160464      
0.380811       35.8921        0.0160252      
0.387798       35.8285        0.016015       
0.394786       35.7107        0.0159852      
0.401773       35.6038        0.015961       
0.40876        35.4642        0.0159279      
0.415748       35.2838        0.0158934      
0.422735       35.1468        0.0158593      
0.429722       34.9254        0.0158144      
0.43671        34.7225        0.0157564      
0.443697       34.5232        0.0157187      
0.450684       34.2855        0.015658       
0.457672       34.0718        0.0156153      
0.464659       33.8012        0.0155502      
0.471646       33.5775        0.0155013      
0.478634       33.3007        0.015435       
0.485621       33.0139        0.015367       
0.492608       32.7105        0.0152953      
0.499596       32.4181        0.0152296      
0.506583       32.1362        0.0151628      
0.513571       31.8429        0.0150961      
0.520558       31.509         0.0150151      
0.527545       31.1661        0.0149347      
0.534533       30.8828        0.0148656      
0.54152        30.5632        0.0147875      
0.548507       30.194         0.0146993      
0.555495       29.8972        0.0146205      
0.562482       29.5299        0.0145414      
0.569469       29.187         0.0144526      
0.576457       28.8503        0.0143629      
0.583444       28.4808        0.0142727      
0.590431       28.1303        0.014186       
0.597419       27.7757        0.014098       
0.604406       27.445         0.014015       
0.611393       27.0482        0.0139099      
0.618381       26.7246        0.0138331      
0.625368       26.3535        0.0137318      
0.632356       25.995         0.0136397      
0.639343       25.6574        0.0135544      
0.64633        25.2892        0.0134537      
0.653318       24.9553        0.0133628      
0.660305       24.5868        0.0132671      
0.667292       24.226         0.0131651      
0.67428        23.9008        0.0130767      
0.681267       23.5303        0.0129762      
0.688254       23.1907        0.0128792      
0.695242       22.8286        0.0127805      
0.702229       22.4721        0.0126839      
0.709216       22.1537        0.01259        
0.716204       21.806         0.0124921      
0.723191       21.4705        0.0123954      
0.730178       21.1249        0.0122968      
0.737166       20.8126        0.0121994      
0.744153       20.4655        0.0121025      
0.751141       20.1195        0.011998       
0.758128       19.8184        0.0119079      
0.765115       19.4984        0.0118097      
0.772103       19.1469        0.0117046      
0.77909        18.852         0.0116115      
0.786077       18.535         0.0115147      
0.793065       18.2284        0.0114212      
0.800052       17.9222        0.0113238      
0.807039       17.6198        0.0112284      
0.814027       17.3215        0.0111337      
0.821014       17.0339        0.01104        
0.828001       16.7108        0.0109369      
0.834989       16.4315        0.0108447      
0.841976       16.1549        0.0107504      
0.848964       15.8749        0.0106598      
0.855951       15.5898        0.0105608      
0.862938       15.3131        0.0104692      
0.869926       15.0509        0.0103766      
0.876913       14.7711        0.0102796      
0.8839         14.5259        0.0101943      
0.890888       14.2383        0.0100942      
0.897875       14.012         0.0100113      
0.904862       13.7283        0.00991148     
0.91185        13.4844        0.00982265     
0.918837       13.2327        0.00973164     
0.925824       12.9995        0.00964202     
0.932812       12.7359        0.00954565     
0.939799       12.5225        0.00946619     
0.946786       12.3063        0.00938335     
0.953774       12.0663        0.00929105     
0.960761       11.8375        0.00920338     
0.967749       11.619         0.00912074     
0.974736       11.394         0.00902982     
0.981723       11.1866        0.00894631     
0.988711       10.9634        0.00885756     
0.995698       10.7762        0.00878387     
1.00269        10.5419        0.00868387     
1.00967        10.3528        0.00860726     
1.01666        10.1368        0.00851714     
1.02365        9.95355        0.00843949     
1.03063        9.76334        0.0083609      
1.03762        9.58197        0.00828021     
1.04461        9.40433        0.00820239     
1.0516         9.20066        0.00811511     
1.05858        9.01858        0.00803378     
1.06557        8.8454         0.00795681     
1.07256        8.68291        0.00788287     
1.07955        8.51822        0.00780993     
1.08653        8.3531         0.00773002     
1.09352        8.17223        0.00764731     
1.10051        8.00296        0.00756839     
1.1075         7.83596        0.00748943     
1.11448        7.69254        0.00741916     
1.12147        7.5316         0.00734068     
1.12846        7.38907        0.0072709      
1.13545        7.24163        0.00719857     
1.14243        7.09146        0.00712255     
1.14942        6.95974        0.00705781     
1.15641        6.80597        0.00698055     
1.16339        6.66377        0.00690663     
1.17038        6.53586        0.00683945     
1.17737        6.40069        0.00676729     
1.18436        6.27481        0.00670151     
1.19134        6.15183        0.0066343      
1.19833        6.02819        0.00656794     
1.20532        5.90656        0.00650163     
1.21231        5.77679        0.00643141     
1.21929        5.66437        0.00636672     
1.22628        5.54301        0.00629731     
1.23327        5.42154        0.00622921     
1.24026        5.32105        0.00617231     
1.24724        5.19976        0.00610063     
1.25423        5.09853        0.00603832     
1.26122        4.99969        0.00598146     
1.2682         4.88387        0.00591222     
1.27519        4.78429        0.00585121     
1.28218        4.69477        0.00579657     
1.28917        4.59557        0.00573269     
1.29615        4.49972        0.00567433     
1.30314        4.39559        0.0056091      
1.31013        4.31034        0.00555361     
1.31712        4.22858        0.00549941     
1.3241         4.12984        0.00543419     
1.33109        4.04737        0.00538104     
1.33808        3.96186        0.0053237      
1.34507        3.87679        0.00526843     
1.35205        3.7987         0.00521439     
1.35904        3.71362        0.0051557      
1.36603        3.6341         0.00509971     
1.37302        3.55658        0.00504597     
1.38           3.47401        0.00498572     
1.38699        3.40804        0.00493873     
1.39398        3.34031        0.00488866     
1.40096        3.26607        0.00483581     
1.40795        3.20176        0.00478498     
1.41494        3.12346        0.00472765     
1.42193        3.0556         0.00467526     
1.42891        2.98997        0.00462629     
1.4359         2.92659        0.00457558     
1.44289        2.86723        0.00453051     
1.44988        2.79791        0.00447259     
1.45686        2.7371         0.00442502     
1.46385        2.6822         0.00438169     
1.47084        2.62495        0.00433404     
1.47783        2.5717         0.00428863     
1.48481        2.51592        0.00424425     
1.4918         2.45802        0.00419349     
1.49879        2.40431        0.00414786     
1.50577        2.36313        0.00411181     
1.51276        2.29948        0.00405663     
1.51975        2.25073        0.00401249     
1.52674        2.20563        0.00397315     
1.53372        2.16289        0.00393389     
1.54071        2.11706        0.00389201     
1.5477         2.05771        0.0038368      
1.55469        2.01973        0.00380153     
1.56167        1.97399        0.00375927     
1.56866        1.92885        0.00371441     
1.57565        1.88776        0.00367562     
1.58264        1.84967        0.0036383      
1.58962        1.80284        0.0035913      
1.59661        1.76889        0.00355827     
1.6036         1.72562        0.00351471     
1.61059        1.68602        0.00347247     
1.61757        1.65021        0.00343595     
1.62456        1.61335        0.00339694     
1.63155        1.58307        0.0033655      
1.63853        1.54714        0.00332702     
1.64552        1.50723        0.00328369     
1.65251        1.47483        0.00324844     
1.6595         1.44401        0.00321426     
1.66648        1.4132         0.00317966     
1.67347        1.38421        0.00314698     
1.68046        1.34815        0.00310681     
1.68745        1.31771        0.0030716      
1.69443        1.28849        0.00303609     
1.70142        1.26506        0.00300824     
1.70841        1.22957        0.00296592     
1.7154         1.20449        0.00293608     
1.72238        1.18343        0.00291009     
1.72937        1.15692        0.00287768     
1.73636        1.1291         0.00284265     
1.74334        1.09854        0.0028038      
1.75033        1.07851        0.00277764     
1.75732        1.04954        0.0027409      
1.76431        1.02914        0.00271335     
1.77129        1.00276        0.00267912     
1.77828        0.984464       0.00265384     
1.78527        0.963176       0.00262514     
1.79226        0.942267       0.00259695     
1.79924        0.918889       0.00256398     
1.80623        0.899718       0.00253683     
1.81322        0.878974       0.00250726     
1.82021        0.860304       0.00248041     
1.82719        0.838787       0.00245055     
1.83418        0.817863       0.00241909     
1.84117        0.802557       0.00239624     
1.84816        0.783193       0.00236669     
1.85514        0.76622        0.00234163     
1.86213        0.745511       0.00231011     
1.86912        0.735336       0.00229393     
1.8761         0.718026       0.0022673      
1.88309        0.698941       0.00223558     
1.89008        0.682275       0.00220929     
1.89707        0.664178       0.00217988     
1.90405        0.6564         0.00216773     
1.91104        0.640164       0.0021407      
1.91803        0.618811       0.00210437     
1.92502        0.609215       0.00208823     
1.932          0.597501       0.00206784     
1.93899        0.583368       0.00204322     
1.94598        0.5691         0.00201811     
1.95297        0.554767       0.00199212     
1.95995        0.542781       0.00197072     
1.96694        0.531016       0.0019493      
1.97393        0.516841       0.00192335     
1.98091        0.502944       0.0018973      
1.9879         0.497055       0.00188591     
1.99489        0.481191       0.00185547     
2.00188        0.473885       0.00184134     
2.00886        0.461226       0.0018168      
2.01585        0.451258       0.00179747     
2.02284        0.440267       0.00177465     
2.02983        0.427601       0.00174914     
2.03681        0.422091       0.00173816     
2.0438         0.412917       0.0017186      
2.05079        0.402663       0.0016977      
2.05778        0.390319       0.00167132     
2.06476        0.381854       0.00165273     
2.07175        0.372995       0.00163348     
2.07874        0.364466       0.00161488     
2.08573        0.358619       0.00160233     
2.09271        0.350297       0.00158357     
2.0997         0.34259        0.00156591     
2.10669        0.336808       0.00155291     
2.11367        0.327263       0.00153063     
2.12066        0.31957        0.00151228     
2.12765        0.309903       0.00148892     
2.13464        0.303126       0.00147227     
2.14162        0.29597        0.00145524     
2.14861        0.289108       0.00143827     
2.1556         0.285351       0.00142875     
2.16259        0.277587       0.00140932     
2.16957        0.269201       0.00138799     
2.17656        0.264506       0.00137577     
2.18355        0.256284       0.00135395     
2.19054        0.251261       0.00134089     
2.19752        0.247519       0.00133083     
2.20451        0.241372       0.00131418     
2.2115         0.234309       0.00129483     
2.21848        0.230266       0.00128337     
2.22547        0.225722       0.00127116     
2.23246        0.220105       0.00125481     
2.23945        0.212799       0.00123382     
2.24643        0.210409       0.00122673     
2.25342        0.207403       0.00121829     
2.26041        0.20009        0.00119656     
2.2674         0.194036       0.00117819     
2.27438        0.189156       0.00116341     
2.28137        0.18605        0.0011538      
2.28836        0.179481       0.00113339     
2.29535        0.17702        0.00112533     
2.30233        0.174208       0.00111647     
2.30932        0.169778       0.00110245     
2.31631        0.163681       0.00108239     
2.3233         0.16127        0.00107417     
2.33028        0.157985       0.0010632      
2.33727        0.153148       0.00104658     
2.34426        0.151509       0.00104147     
2.35124        0.146186       0.00102311     
2.35823        0.144232       0.00101591     
2.36522        0.142178       0.00100887     
2.37221        0.134107       0.000979413    
2.37919        0.133563       0.000977638    
2.38618        0.131266       0.000969211    
2.39317        0.127967       0.000957245    
2.40016        0.126164       0.00095044     
2.40714        0.12162        0.000932823    
2.41413        0.119094       0.0009231      
2.42112        0.116017       0.00091106     
2.42811        0.112732       0.000898032    
2.43509        0.111158       0.000891805    
2.44208        0.108682       0.000881948    
2.44907        0.105355       0.000868129    
2.45605        0.103473       0.000860468    
2.46304        0.100238       0.000846811    
2.47003        0.0985208      0.000839838    
2.47702        0.0950145      0.000824413    
2.484          0.0930395      0.000815745    
2.49099        0.0920735      0.000811755    
2.49798        0.0895332      0.000800431    
2.50497        0.0866065      0.000787386    
2.51195        0.0853399      0.000781551    
2.51894        0.0838372      0.000774649    
2.52593        0.0824704      0.000768385    
2.53292        0.0784274      0.000749139    
2.5399         0.0765812      0.000740417    
2.54689        0.0750284      0.000732604    
2.55388        0.0750713      0.000732883    
2.56087        0.0729246      0.000722409    
2.56785        0.0717582      0.000716543    
2.57484        0.0684594      0.000699894    
2.58183        0.0665631      0.000690289    
2.58881        0.0666561      0.000690474    
2.5958         0.0634503      0.000673749    
2.60279        0.0629137      0.000670896    
2.60978        0.0610603      0.000661256    
2.61676        0.0589422      0.000649468    
2.62375        0.0583196      0.000645953    
2.63074        0.0565307      0.000635894    
2.63773        0.055765       0.000631737    
2.64471        0.0530673      0.000616115    
2.6517         0.0523732      0.000612074    
2.65869        0.0523875      0.000612157    
2.66568        0.0506272      0.000602043    
2.67266        0.0486522      0.000589937    
2.67965        0.0485878      0.000589721    
2.68664        0.0470063      0.000579965    
2.69362        0.04589        0.000572952    
2.70061        0.0443945      0.000563541    
2.7076         0.0439723      0.000560947    
2.71459        0.0433497      0.000557057    
2.72157        0.04111        0.000542489    
2.72856        0.0403586      0.000537323    
2.73555        0.0388917      0.000527567    
2.74254        0.0384337      0.000524454    
2.74952        0.0368881      0.000513707    
2.75651        0.0368165      0.000513209    
2.7635         0.0363085      0.000509857    
2.77049        0.0352136      0.000501915    
2.77747        0.0344837      0.000496688    
2.78446        0.0327878      0.000484323    
2.79145        0.0327806      0.000484376    
2.79844        0.0332672      0.00048785     
2.80542        0.0315069      0.000474878    
2.81241        0.031006       0.0004712      
2.8194         0.0297251      0.000461264    
2.82638        0.0287019      0.000453148    
2.83337        0.0284371      0.000451053    
2.84036        0.0279362      0.000447064    
2.84735        0.0264692      0.00043517     
2.85433        0.02687        0.000438451    
2.86132        0.0254531      0.000426737    
2.86831        0.0250452      0.000423305    
2.8753         0.0252027      0.000424754    
2.88228        0.0239075      0.00041358     
2.88927        0.0233135      0.000408411    
2.89626        0.02292        0.00040495     
2.90325        0.0221185      0.000397808    
2.91023        0.0218538      0.00039542     
2.91722        0.0213171      0.000390535    
2.92421        0.0206301      0.000384192    
2.9312         0.0197714      0.000376112    
2.93818        0.0192133      0.000370766    
2.94517        0.0193636      0.000372213    
2.95216        0.0186694      0.000365482    
2.95914        0.0186766      0.000365692    
2.96613        0.018419       0.000363023    
2.97312        0.0179181      0.000358053    
2.98011        0.0165012      0.000343607    
2.98709        0.0163724      0.000342413    
2.99408        0.0163295      0.000341814    
3.00107        0.0161792      0.000340238    
3.00806        0.0158214      0.000336456    
3.01504        0.0151774      0.000329537    
3.02203        0.0149842      0.000327433    
