pT (GeV)       dN/dpt         error          
0.00393956     0.00677105     0.000207282    
0.0118187      0.0206812      0.000362242    
0.0196978      0.0337474      0.000462709    
0.027577       0.0473403      0.000548146    
0.0354561      0.0604572      0.000619381    
0.0433352      0.075516       0.000692222    
0.0512143      0.0871733      0.00074373     
0.0590935      0.0994843      0.000794496    
0.0669726      0.112741       0.00084589     
0.0748517      0.127019       0.000897621    
0.0827309      0.140866       0.000945544    
0.09061        0.15312        0.000986042    
0.0984891      0.166294       0.00102722     
0.106368       0.180439       0.00106998     
0.114247       0.192312       0.00110457     
0.122127       0.204737       0.00114002     
0.130006       0.212809       0.00116202     
0.137885       0.227138       0.00120044     
0.145764       0.240153       0.00123457     
0.153643       0.250465       0.00126063     
0.161522       0.265454       0.00129784     
0.169401       0.278686       0.00133033     
0.17728        0.287608       0.00135081     
0.18516        0.296391       0.00137181     
0.193039       0.307737       0.00139789     
0.200918       0.318036       0.00142039     
0.208797       0.328323       0.0014431      
0.216676       0.339359       0.00146786     
0.224555       0.346682       0.00148303     
0.232434       0.361575       0.00151442     
0.240313       0.37084        0.00153412     
0.248193       0.375727       0.00154418     
0.256072       0.386743       0.00156652     
0.263951       0.393254       0.00157965     
0.27183        0.404531       0.00160188     
0.279709       0.410305       0.0016138      
0.287588       0.419101       0.00163104     
0.295467       0.427477       0.00164717     
0.303347       0.437009       0.00166509     
0.311226       0.441553       0.00167419     
0.319105       0.449986       0.00168989     
0.326984       0.457347       0.00170328     
0.334863       0.462069       0.00171243     
0.342742       0.470667       0.00172822     
0.350621       0.475935       0.00173807     
0.3585         0.477635       0.00174087     
0.36638        0.485777       0.00175623     
0.374259       0.48848        0.00176127     
0.382138       0.494173       0.00177103     
0.390017       0.499763       0.00178031     
0.397896       0.50187        0.00178509     
0.405775       0.510646       0.00180012     
0.413654       0.510716       0.00179988     
0.421533       0.512588       0.0018034      
0.429413       0.514765       0.00180775     
0.437292       0.522513       0.00182121     
0.445171       0.524918       0.00182463     
0.45305        0.527876       0.00183034     
0.460929       0.529602       0.00183342     
0.468808       0.529925       0.00183413     
0.476687       0.531747       0.00183685     
0.484566       0.534507       0.00184149     
0.492446       0.535154       0.00184308     
0.500325       0.535744       0.00184378     
0.508204       0.539698       0.0018504      
0.516083       0.537997       0.00184799     
0.523962       0.541069       0.00185295     
0.531841       0.542166       0.00185462     
0.53972        0.540364       0.00185132     
0.5476         0.537674       0.001847       
0.555479       0.538841       0.00184903     
0.563358       0.540447       0.00185176     
0.571237       0.536779       0.00184519     
0.579116       0.535249       0.00184252     
0.586995       0.535732       0.0018438      
0.594874       0.5324         0.00183861     
0.602753       0.530915       0.00183517     
0.610633       0.53181        0.00183631     
0.618512       0.53228        0.00183807     
0.626391       0.525756       0.0018263      
0.63427        0.527736       0.00183013     
0.642149       0.52351        0.00182307     
0.650028       0.518198       0.00181367     
0.657907       0.518883       0.00181437     
0.665786       0.517754       0.0018127      
0.673666       0.50847        0.0017964      
0.681545       0.510551       0.00179998     
0.689424       0.50437        0.00178902     
0.697303       0.501388       0.0017839      
0.705182       0.49845        0.00177873     
0.713061       0.497847       0.00177732     
0.72094        0.493576       0.00177029     
0.72882        0.488176       0.00175954     
0.736699       0.485174       0.00175469     
0.744578       0.486183       0.00175668     
0.752457       0.47794        0.00174136     
0.760336       0.473948       0.00173438     
0.768215       0.472774       0.00173194     
0.776094       0.466949       0.00172155     
0.783973       0.4604         0.00170936     
0.791853       0.458191       0.00170484     
0.799732       0.451382       0.00169261     
0.807611       0.450881       0.00169135     
0.81549        0.443482       0.00167811     
0.823369       0.43982        0.0016704      
0.831248       0.437643       0.00166655     
0.839127       0.431774       0.00165576     
0.847006       0.427166       0.00164613     
0.854886       0.424254       0.00164084     
0.862765       0.419964       0.00163229     
0.870644       0.412698       0.00161867     
0.878523       0.407596       0.00160782     
0.886402       0.40981        0.00161251     
0.894281       0.398331       0.00158968     
0.90216        0.395945       0.00158517     
0.91004        0.390214       0.00157378     
0.917919       0.385208       0.00156335     
0.925798       0.380638       0.00155403     
0.933677       0.376273       0.00154491     
0.941556       0.372522       0.00153749     
0.949435       0.366303       0.00152471     
0.957314       0.362254       0.00151665     
0.965193       0.360275       0.00151181     
0.973073       0.353097       0.00149719     
0.980952       0.347164       0.00148376     
0.988831       0.344568       0.00147845     
0.99671        0.342392       0.00147363     
1.00459        0.334707       0.00145794     
1.01247        0.329764       0.00144678     
1.02035        0.325785       0.00143773     
1.02823        0.324268       0.00143432     
1.03611        0.317706       0.00141969     
1.04398        0.310999       0.00140478     
1.05186        0.31084        0.00140479     
1.05974        0.30504        0.00139138     
1.06762        0.300388       0.00138078     
1.0755         0.296689       0.00137217     
1.08338        0.292133       0.00136153     
1.09126        0.287811       0.00135138     
1.09914        0.282011       0.00133754     
1.10702        0.277594       0.00132725     
1.1149         0.273247       0.0013168      
1.12278        0.267339       0.00130255     
1.13066        0.265277       0.00129735     
1.13853        0.262618       0.0012908      
1.14641        0.256526       0.00127595     
1.15429        0.252623       0.00126619     
1.16217        0.248054       0.0012547      
1.17005        0.244513       0.00124552     
1.17793        0.240851       0.00123655     
1.18581        0.235318       0.00122206     
1.19369        0.234956       0.00122102     
1.20157        0.22941        0.00120678     
1.20945        0.226459       0.00119899     
1.21733        0.221668       0.00118605     
1.2252         0.21977        0.00118098     
1.23308        0.212961       0.00116226     
1.24096        0.209401       0.00115267     
1.24884        0.207333       0.00114691     
1.25672        0.2019         0.00113201     
1.2646         0.198524       0.00112243     
1.27248        0.196963       0.00111838     
1.28036        0.19143        0.00110215     
1.28824        0.190465       0.00109916     
1.29612        0.186931       0.00108886     
1.304          0.182501       0.00107618     
1.31188        0.179049       0.00106556     
1.31975        0.175794       0.00105604     
1.32763        0.172475       0.00104601     
1.33551        0.169371       0.00103662     
1.34339        0.167119       0.00102988     
1.35127        0.164936       0.00102303     
1.35915        0.16196        0.00101342     
1.36703        0.158146       0.00100192     
1.37491        0.156997       0.000997967    
1.38279        0.152485       0.000983675    
1.39067        0.150029       0.000975864    
1.39855        0.144775       0.000958332    
1.40642        0.144058       0.000956297    
1.4143         0.142129       0.000949932    
1.42218        0.138296       0.000936899    
1.43006        0.137858       0.000935246    
1.43794        0.13287        0.000918424    
1.44582        0.131569       0.000913752    
1.4537         0.128314       0.000902355    
1.46158        0.126905       0.000897488    
1.46946        0.123281       0.000884383    
1.47734        0.120191       0.000873338    
1.48522        0.119664       0.000871472    
1.4931         0.11573        0.000856679    
1.50097        0.114676       0.000853106    
1.50885        0.111992       0.000843033    
1.51673        0.109549       0.000833852    
1.52461        0.107429       0.000825615    
1.53249        0.105665       0.000818966    
1.54037        0.102936       0.000808243    
1.54825        0.101382       0.000802076    
1.55613        0.101255       0.000801474    
1.56401        0.0977836      0.000787685    
1.57189        0.0951438      0.000776787    
1.57977        0.0939761      0.000772323    
1.58764        0.0912918      0.000761073    
1.59552        0.0887788      0.000750485    
1.6034         0.0884742      0.000749251    
1.61128        0.0869512      0.000742783    
1.61916        0.0846096      0.00073289     
1.62704        0.0825281      0.000723668    
1.63492        0.0793425      0.000709808    
1.6428         0.0791648      0.000708787    
1.65068        0.0770517      0.000699045    
1.65856        0.0750083      0.000689836    
1.66644        0.0735995      0.000683451    
1.67432        0.072527       0.000678519    
1.68219        0.0714863      0.0006737      
1.69007        0.0704773      0.000668575    
1.69795        0.0692589      0.000662895    
1.70583        0.0668475      0.000651263    
1.71371        0.0652991      0.000643933    
1.72159        0.0638015      0.000636266    
1.72947        0.0619738      0.000627095    
1.73735        0.0606349      0.000620289    
1.74523        0.0608379      0.000621326    
1.75311        0.0588707      0.000611141    
1.76099        0.0580648      0.000607079    
1.76886        0.0568908      0.000600918    
1.77674        0.053959       0.000585246    
1.78462        0.0527089      0.000578226    
1.7925         0.052271       0.00057596     
1.80038        0.0523852      0.000576728    
1.80826        0.050437       0.000565775    
1.81614        0.04906        0.000557861    
1.82402        0.0483937      0.000554279    
1.8319         0.0467247      0.000544426    
1.83978        0.0464709      0.000543094    
1.84766        0.0455888      0.000537845    
1.85554        0.0443767      0.000530804    
1.86341        0.0425364      0.000519462    
1.87129        0.0423334      0.000518298    
1.87917        0.0408167      0.000508856    
1.88705        0.04095        0.000509844    
1.89493        0.0400552      0.000504088    
1.90281        0.0372947      0.000486579    
1.91069        0.0382656      0.000492866    
1.91857        0.0368315      0.000483384    
1.92645        0.0362032      0.000479329    
1.93433        0.0363555      0.000480252    
1.94221        0.0349404      0.000470815    
1.95008        0.0343439      0.000466866    
1.95796        0.0329541      0.00045724     
1.96584        0.032364       0.000453217    
1.97372        0.0315581      0.000447453    
1.9816         0.0311519      0.000444565    
1.98948        0.0302         0.000437722    
1.99736        0.0292672      0.00043091     
2.00524        0.0288611      0.00042791     
2.01312        0.0283661      0.000424321    
2.021          0.0279219      0.000420892    
2.02888        0.026989       0.000413803    
2.03676        0.0267288      0.000411804    
2.04463        0.0261006      0.000406936    
2.05251        0.025631       0.00040326     
2.06039        0.0245966      0.00039504     
2.06827        0.0238097      0.000388671    
2.07615        0.0237717      0.00038836     
2.08403        0.0225596      0.000378332    
2.09191        0.0221154      0.000374589    
2.09979        0.0221027      0.000374482    
2.10767        0.0212206      0.000366935    
2.11555        0.0203068      0.000359061    
2.12343        0.0200086      0.000356303    
2.1313         0.0206939      0.000362353    
2.13918        0.0194945      0.000351697    
2.14706        0.0182825      0.00034059     
2.15494        0.0187267      0.000344702    
2.16282        0.0183713      0.000341535    
2.1707         0.0172862      0.000331181    
2.17858        0.0174004      0.000332273    
2.18646        0.016677       0.000325418    
2.19434        0.016842       0.000326899    
2.20222        0.0161058      0.000319676    
2.2101         0.0159599      0.000318224    
2.21798        0.0155664      0.000314406    
2.22585        0.0152111      0.00031067     
2.23373        0.0146907      0.000305311    
2.24161        0.0140942      0.000299049    
2.24949        0.0144242      0.000302529    
2.25737        0.0140307      0.000298375    
2.26525        0.0128948      0.000286043    
2.27313        0.0124633      0.000281217    
2.28101        0.0127489      0.00028442     
2.28889        0.0123047      0.000279421    
2.29677        0.0116066      0.000271677    
2.30465        0.0114797      0.000269893    
2.31252        0.0114353      0.00026937     
2.3204         0.0115622      0.000270861    
2.32828        0.0106738      0.000260402    
2.33616        0.0106611      0.000260093    
2.34404        0.0109086      0.000263247    
2.35192        0.0103374      0.000256115    
2.3598         0.00975996     0.000248859    
2.36768        0.00979169     0.000249263    
2.37556        0.00919518     0.000241552    
2.38344        0.00953786     0.000246011    
2.39132        0.00874462     0.00023556     
2.3992         0.00868116     0.000234704    
2.40707        0.00909364     0.000240215    
2.41495        0.00852251     0.000232549    
2.42283        0.00802119     0.000225606    
2.43071        0.00817349     0.000227738    
2.43859        0.00798311     0.00022507     
2.44647        0.00761505     0.000219821    
2.45435        0.00726603     0.000214725    
2.46223        0.00727238     0.000214818    
2.47011        0.00696777     0.000210272    
2.47799        0.00705662     0.000211608    
2.48587        0.00665048     0.000205429    
2.49374        0.00658702     0.000204446    
2.50162        0.00642837     0.000201969    
2.5095         0.00603493     0.000195691    
2.51738        0.0063078      0.000200066    
2.52526        0.00560341     0.000188566    
2.53314        0.00603493     0.000195691    
2.54102        0.00572398     0.000190583    
2.5489         0.00564783     0.000189312    
2.55678        0.00550188     0.000186849    
2.56466        0.00520362     0.000181715    
2.57254        0.00521631     0.000181936    
2.58042        0.00495613     0.000177341    
2.58829        0.00445481     0.000168133    
2.59617        0.00494979     0.000177227    
2.60405        0.00477845     0.000174133    
2.61193        0.00450557     0.000169088    
2.61981        0.00446115     0.000168253    
2.62769        0.00445481     0.000168133    
2.63557        0.00437866     0.00016669     
2.64345        0.00414386     0.000162159    
2.65133        0.00423905     0.000164011    
2.65921        0.00386464     0.000156601    
2.66709        0.00373772     0.000154008    
2.67496        0.00357273     0.00015057     
2.68284        0.00395983     0.000158518    
2.69072        0.00392175     0.000157754    
2.6986         0.00332524     0.000145262    
2.70648        0.00373138     0.000153877    
2.71436        0.0031539      0.00014147     
2.72224        0.00318563     0.00014218     
2.73012        0.00334428     0.000145677    
2.738          0.00299525     0.000137866    
2.74588        0.0029318      0.000136398    
2.75376        0.00279853     0.000133262    
2.76164        0.00270969     0.00013113     
2.76951        0.00272238     0.000131436    
2.77739        0.00278584     0.000132959    
2.78527        0.00265892     0.000129896    
2.79315        0.00270969     0.00013113     
2.80103        0.00249393     0.000125801    
2.80891        0.00255104     0.000127233    
2.81679        0.00218298     0.000117697    
2.82467        0.00244951     0.000124676    
2.83255        0.0022401      0.000119227    
2.84043        0.00216394     0.000117183    
2.84831        0.00188473     0.000109362    
2.85618        0.00216394     0.000117183    
2.86406        0.00206876     0.000114577    
2.87194        0.00202434     0.00011334     
2.87982        0.00203068     0.000113518    
2.8877         0.001853       0.000108438    
2.89558        0.00172608     0.000104658    
2.90346        0.00177685     0.000106186    
2.91134        0.00163089     0.000101732    
2.91922        0.00177685     0.000106186    
2.9271         0.00168166     0.000103303    
2.93498        0.00156109     9.95306e-05    
2.94286        0.00171973     0.000104466    
2.95073        0.00156743     9.97327e-05    
2.95861        0.00138975     9.39099e-05    
2.96649        0.00149763     9.74867e-05    
2.97437        0.00137706     9.34801e-05    
2.98225        0.00149128     9.72799e-05    
2.99013        0.00130091     9.08587e-05    
2.99801        0.00104707     8.15139e-05    
3.00589        0.00126918     8.97438e-05    
3.01377        0.00125014     8.90682e-05    
3.02165        0.00112957     8.46642e-05    
3.02953        0.00117399     8.63129e-05    
3.0374         0.00110418     8.37075e-05    
3.04528        0.0011486      8.53747e-05    
3.05316        0.00108515     8.29828e-05    
3.06104        0.000958228    7.79792e-05    
3.06892        0.00112957     8.46642e-05    
3.0768         0.000977265    7.875e-05      
3.08468        0.000958228    7.79792e-05    
3.09256        0.000989957    7.92597e-05    
3.10044        0.000926498    7.66773e-05    
3.10832        0.00100265     7.97661e-05    
3.1162         0.000844002    7.3184e-05     
3.12408        0.000913806    7.61503e-05    
3.13195        0.00103438     8.10184e-05    
3.13983        0.000812272    7.17952e-05    
3.14771        0.00075516     6.92252e-05    
3.15559        0.00072343     6.77552e-05    
3.16347        0.000761505    6.95154e-05    
3.17135        0.000666317    6.50257e-05    
3.17923        0.000710738    6.71583e-05    
3.18711        0.000640934    6.37751e-05    
3.19499        0.000672663    6.53346e-05    
3.20287        0.000786889    7.06645e-05    
3.21075        0.000659971    6.47153e-05    
3.21862        0.000748814    6.89337e-05    
3.2265         0.000767851    6.98045e-05    
3.23438        0.000545746    5.88491e-05    
3.24226        0.000494979    5.60452e-05    
3.25014        0.000577475    6.05357e-05    
3.25802        0.000577475    6.05357e-05    
3.2659         0.000456903    5.38465e-05    
3.27378        0.000494979    5.60452e-05    
3.28166        0.000552091    5.91903e-05    
3.28954        0.000469595    5.45892e-05    
3.29742        0.00061555     6.24995e-05    
3.3053         0.000469595    5.45892e-05    
3.31317        0.000380753    4.91549e-05    
3.32105        0.000552091    5.91903e-05    
3.32893        0.00043152     5.23294e-05    
3.33681        0.000444211    5.30933e-05    
3.34469        0.000368061    4.83287e-05    
3.35257        0.000412482    5.1162e-05     
3.36045        0.000349023    4.70622e-05    
3.36833        0.000380753    4.91549e-05    
3.37621        0.000437866    5.27127e-05    
3.38409        0.000349023    4.70622e-05    
3.39197        0.000387099    4.95628e-05    
3.39984        0.000355369    4.74881e-05    
3.40772        0.000304602    4.39655e-05    
