pT (GeV)       dN/dpt         error          
0.00393827     0.00721763     0.000214044    
0.0118148      0.0210752      0.000365846    
0.0196914      0.0337394      0.000462818    
0.0275679      0.0477494      0.000550525    
0.0354444      0.0619307      0.000626979    
0.043321       0.0738839      0.000684881    
0.0511975      0.0874686      0.000745055    
0.0590741      0.103726       0.000811414    
0.0669506      0.114587       0.000852914    
0.0748272      0.128178       0.000902162    
0.0827037      0.140728       0.00094511     
0.0905803      0.155093       0.000992358    
0.0984568      0.167199       0.00103022     
0.106333       0.180739       0.00107124     
0.11421        0.192896       0.00110642     
0.122086       0.204569       0.00113935     
0.129963       0.21644        0.00117209     
0.13784        0.231396       0.00121194     
0.145716       0.240473       0.0012353      
0.153593       0.25289        0.00126681     
0.161469       0.267859       0.00130418     
0.169346       0.274841       0.0013209      
0.177222       0.287017       0.00134998     
0.185099       0.299636       0.00137923     
0.192975       0.31145        0.00140579     
0.200852       0.322813       0.0014314      
0.208728       0.331903       0.00145157     
0.216605       0.342161       0.00147393     
0.224482       0.352394       0.00149574     
0.232358       0.361561       0.0015149      
0.240235       0.370048       0.00153285     
0.248111       0.380313       0.00155383     
0.255988       0.39052        0.00157445     
0.263864       0.396741       0.00158709     
0.271741       0.406143       0.00160561     
0.279617       0.415347       0.00162436     
0.287494       0.424806       0.0016419      
0.29537        0.43062        0.0016532      
0.303247       0.438339       0.00166781     
0.311123       0.446389       0.00168266     
0.319          0.457028       0.00170304     
0.326877       0.4552         0.00169987     
0.334753       0.46535        0.0017187      
0.34263        0.473818       0.00173471     
0.350506       0.47717        0.00174034     
0.358383       0.486362       0.00175699     
0.366259       0.489193       0.00176268     
0.374136       0.497496       0.00177707     
0.382012       0.500981       0.00178339     
0.389889       0.505539       0.00179149     
0.397765       0.507062       0.00179425     
0.405642       0.513468       0.00180532     
0.413519       0.518159       0.00181293     
0.421395       0.519035       0.0018148      
0.429272       0.5204         0.00181761     
0.437148       0.524602       0.00182437     
0.445025       0.526709       0.00182857     
0.452901       0.534181       0.00184148     
0.460778       0.532112       0.00183787     
0.468654       0.531661       0.00183677     
0.476531       0.536669       0.00184581     
0.484407       0.538726       0.00184908     
0.492284       0.546179       0.00186159     
0.500161       0.541633       0.00185393     
0.508037       0.53792        0.00184746     
0.515914       0.542484       0.00185559     
0.52379        0.544496       0.00185972     
0.531667       0.543201       0.00185657     
0.539543       0.543678       0.00185722     
0.54742        0.542052       0.00185471     
0.555296       0.540472       0.00185213     
0.563173       0.541868       0.001855       
0.571049       0.537749       0.00184772     
0.578926       0.53559        0.00184377     
0.586803       0.539951       0.00185155     
0.594679       0.536162       0.00184534     
0.602556       0.538148       0.00184853     
0.610432       0.533076       0.00183933     
0.618309       0.531991       0.0018376      
0.626185       0.530683       0.00183584     
0.634062       0.52777        0.00183071     
0.641938       0.527351       0.00182952     
0.649815       0.523396       0.00182293     
0.657691       0.521504       0.00181966     
0.665568       0.519378       0.00181609     
0.673445       0.511912       0.00180279     
0.681321       0.511055       0.00180084     
0.689198       0.508097       0.00179607     
0.697074       0.505304       0.00179112     
0.704951       0.503889       0.00178838     
0.712827       0.501172       0.00178372     
0.720704       0.498664       0.00177916     
0.72858        0.492729       0.00176878     
0.736457       0.485892       0.00175592     
0.744333       0.486279       0.0017571      
0.75221        0.480763       0.00174674     
0.760086       0.476637       0.00173928     
0.767963       0.474098       0.00173482     
0.77584        0.471317       0.00173002     
0.783716       0.467718       0.00172341     
0.791593       0.460088       0.001709       
0.799469       0.456977       0.00170342     
0.807346       0.45228        0.00169444     
0.815222       0.449937       0.00169015     
0.823099       0.444059       0.00167913     
0.830975       0.439292       0.00167062     
0.838852       0.437635       0.00166693     
0.846728       0.429884       0.00165199     
0.854605       0.42838        0.0016489      
0.862482       0.424164       0.00164114     
0.870358       0.415601       0.00162433     
0.878235       0.412783       0.00161887     
0.886111       0.411119       0.00161498     
0.893988       0.404276       0.00160197     
0.901864       0.398544       0.00159067     
0.909741       0.395097       0.00158351     
0.917617       0.387518       0.00156857     
0.925494       0.387378       0.00156798     
0.93337        0.380186       0.001553       
0.941247       0.375114       0.00154327     
0.949124       0.37008        0.00153312     
0.957          0.364957       0.00152225     
0.964877       0.357987       0.00150773     
0.972753       0.356044       0.00150331     
0.98063        0.352407       0.00149579     
0.988506       0.346135       0.00148211     
0.996383       0.343133       0.00147557     
1.00426        0.340847       0.00147122     
1.01214        0.334017       0.00145585     
1.02001        0.327574       0.0014424      
1.02789        0.324159       0.00143414     
1.03577        0.317455       0.00141996     
1.04364        0.316509       0.00141757     
1.05152        0.31079        0.00140485     
1.0594         0.307654       0.00139764     
1.06727        0.301312       0.00138312     
1.07515        0.298348       0.00137615     
1.08302        0.293466       0.00136499     
1.0909         0.287461       0.00135072     
1.09878        0.282091       0.00133795     
1.10665        0.28197        0.00133781     
1.11453        0.275457       0.00132228     
1.12241        0.269325       0.00130776     
1.13028        0.267103       0.00130191     
1.13816        0.26198        0.00128976     
1.14604        0.258476       0.00128083     
1.15391        0.253836       0.00126929     
1.16179        0.251735       0.0012644      
1.16967        0.246733       0.00125118     
1.17754        0.242587       0.00124086     
1.18542        0.238429       0.00123032     
1.1933         0.233307       0.00121731     
1.20117        0.23212        0.00121389     
1.20905        0.227613       0.00120179     
1.21693        0.221747       0.00118642     
1.2248         0.22042        0.00118312     
1.23268        0.214263       0.00116599     
1.24056        0.214802       0.00116755     
1.24843        0.208911       0.00115152     
1.25631        0.203401       0.00113617     
1.26419        0.202951       0.00113524     
1.27206        0.197828       0.00112054     
1.27994        0.194762       0.00111178     
1.28781        0.191042       0.00110133     
1.29569        0.188065       0.00109281     
1.30357        0.185735       0.00108601     
1.31144        0.180549       0.00107033     
1.31932        0.176181       0.00105772     
1.3272         0.175007       0.00105424     
1.33507        0.1689         0.00103524     
1.34295        0.169129       0.00103605     
1.35083        0.164622       0.00102207     
1.3587         0.161994       0.00101429     
1.36658        0.160026       0.00100773     
1.37446        0.156141       0.000995371    
1.38233        0.152802       0.000984651    
1.39021        0.150275       0.00097674     
1.39809        0.14693        0.000965876    
1.40596        0.145349       0.000960554    
1.41384        0.142709       0.000951681    
1.42172        0.139642       0.000941765    
1.42959        0.134818       0.000925093    
1.43747        0.132482       0.00091728     
1.44535        0.131187       0.000912444    
1.45322        0.128324       0.000902808    
1.4611         0.126661       0.000896684    
1.46898        0.126534       0.000896145    
1.47685        0.12303        0.000883763    
1.48473        0.118428       0.000867249    
1.49261        0.11698        0.000861618    
1.50048        0.113184       0.000847735    
1.50836        0.112911       0.000846666    
1.51623        0.110194       0.000836389    
1.52411        0.106239       0.000821172    
1.53199        0.106411       0.00082198     
1.53986        0.104126       0.000813321    
1.54774        0.102094       0.000805117    
1.55562        0.0992885      0.000793896    
1.56349        0.0974158      0.000786385    
1.57137        0.0966033      0.000783155    
1.57925        0.0944767      0.000774293    
1.58712        0.0908965      0.000759603    
1.595          0.0894174      0.00075346     
1.60288        0.0887762      0.000750597    
1.61075        0.0861609      0.000739852    
1.61863        0.0845485      0.000732471    
1.62651        0.0825299      0.000723961    
1.63438        0.0798637      0.000712079    
1.64226        0.0783148      0.000704978    
1.65014        0.0778006      0.000702777    
1.65801        0.0763533      0.000696159    
1.66589        0.0746203      0.000688281    
1.67377        0.0735538      0.000683351    
1.68164        0.0725509      0.000678504    
1.68952        0.0706211      0.000669486    
1.6974         0.0695165      0.000664356    
1.70527        0.0677328      0.000655604    
1.71315        0.0661204      0.000647821    
1.72102        0.0646857      0.000640761    
1.7289         0.0622672      0.000628679    
1.73678        0.0606992      0.00062085     
1.74465        0.0605469      0.000619941    
1.75253        0.0592455      0.000613249    
1.76041        0.0578744      0.000606117    
1.76828        0.0575189      0.000604321    
1.77616        0.0553225      0.00059282     
1.78404        0.0548845      0.00059013     
1.79191        0.0525802      0.000577615    
1.79979        0.0528404      0.000579111    
1.80767        0.0508281      0.000567985    
1.81554        0.0483397      0.000553916    
1.82342        0.0495585      0.000560779    
1.8313         0.0476097      0.000549647    
1.83917        0.0466639      0.000544161    
1.84705        0.0451657      0.000535509    
1.85493        0.0430455      0.0005228      
1.8628         0.0431979      0.00052357     
1.87068        0.0430074      0.000522415    
1.87856        0.0413506      0.000512335    
1.88643        0.0413443      0.000512374    
1.89431        0.0401509      0.000504853    
1.90219        0.0390336      0.000497702    
1.91006        0.0384433      0.000493926    
1.91794        0.0375545      0.00048835     
1.92582        0.0367991      0.000483251    
1.93369        0.0358723      0.000477298    
1.94157        0.0347107      0.000469513    
1.94944        0.0333712      0.0004602      
1.95732        0.0337204      0.000462687    
1.9652         0.0314415      0.000446789    
1.97307        0.0316446      0.000448139    
1.98095        0.0309844      0.000443532    
1.98883        0.029937       0.000435883    
1.9967         0.0300957      0.000437129    
2.00458        0.0290991      0.000429929    
2.01246        0.0279628      0.000421365    
2.02033        0.0278993      0.000420791    
2.02821        0.0267122      0.000411743    
2.03609        0.02689        0.000413111    
2.04396        0.026198       0.000407762    
2.05184        0.0252649      0.000400536    
2.05972        0.0249729      0.000398115    
2.06759        0.0241413      0.000391535    
2.07547        0.0237287      0.000388073    
2.08335        0.0233161      0.000384685    
2.09122        0.022548       0.000378296    
2.0991         0.0214625      0.00036908     
2.10698        0.0215831      0.000370115    
2.11485        0.0213355      0.000367987    
2.12273        0.0209546      0.000364688    
2.13061        0.0209737      0.000364853    
2.13848        0.0195009      0.000351813    
2.14636        0.0186567      0.000344114    
2.15423        0.0187074      0.000344582    
2.16211        0.0183012      0.00034082     
2.16999        0.0178124      0.000336239    
2.17786        0.0174188      0.000332504    
2.18574        0.0167142      0.000325834    
2.19362        0.0167015      0.000325586    
2.20149        0.015908       0.000317759    
2.20937        0.015762       0.000316297    
2.21725        0.0154382      0.000313033    
2.22512        0.0160857      0.000319529    
2.233          0.0145686      0.000304089    
2.24088        0.0145749      0.000304155    
2.24875        0.0139147      0.000297188    
2.25663        0.0141242      0.000299416    
2.26451        0.0130705      0.000288032    
2.27238        0.0127658      0.000284655    
2.28026        0.0128991      0.000286137    
2.28814        0.0122389      0.000278719    
2.29601        0.0125055      0.000281738    
2.30389        0.01215        0.000277706    
2.31177        0.0113692      0.000268785    
2.31964        0.0115977      0.000271321    
2.32752        0.0109121      0.00026318     
2.3354         0.0107852      0.000261645    
2.34327        0.0102139      0.000254621    
2.35115        0.0103027      0.000255727    
2.35902        0.0102266      0.00025478     
2.3669         0.00971873     0.000248374    
2.37478        0.00992186     0.000250956    
2.38265        0.00937594     0.000243954    
2.39053        0.00900141     0.000239033    
2.39841        0.00867132     0.000234609    
2.40628        0.00912202     0.000240629    
2.41416        0.00872845     0.000235381    
2.42204        0.00831583     0.00022975     
2.42991        0.00809365     0.00022666     
2.43779        0.00781434     0.000222715    
2.44567        0.0076239      0.000219985    
2.45354        0.00782704     0.000222896    
2.46142        0.00712241     0.000212627    
2.4693         0.0070145      0.000211201    
2.47717        0.00679867     0.000207739    
2.48505        0.00677328     0.00020735     
2.49293        0.0066971      0.000206181    
2.5008         0.00667171     0.00020579     
2.50868        0.00618926     0.00019821     
2.51656        0.00627179     0.000199527    
2.52443        0.00599248     0.000195034    
2.53231        0.00579569     0.000191805    
2.54019        0.00585917     0.000193061    
2.54806        0.00562429     0.000188948    
2.55594        0.00571317     0.000190435    
2.56382        0.00531324     0.000183649    
2.57169        0.00515454     0.000180885    
2.57957        0.0052942      0.000183319    
2.58744        0.00504663     0.000178982    
2.59532        0.00469114     0.000172563    
2.6032         0.00462766     0.000171392    
2.61107        0.00459592     0.000170803    
2.61895        0.00460227     0.000170921    
2.62683        0.00424679     0.000164188    
2.6347         0.00418965     0.000163079    
2.64258        0.0040627      0.00016059     
2.65046        0.0042087      0.00016345     
2.65833        0.00382147     0.000155749    
2.66621        0.0042087      0.00016345     
2.67409        0.00367547     0.000152745    
2.68196        0.00370721     0.000153403    
2.68984        0.00350407     0.000149141    
2.69772        0.00359929     0.000151154    
2.70559        0.00339616     0.000146827    
2.71347        0.00336442     0.000146139    
2.72135        0.00305337     0.00013922     
2.72922        0.00303433     0.000138785    
2.7371         0.00333903     0.000145587    
2.74498        0.00287563     0.000135107    
2.75285        0.00272328     0.00013148     
2.76073        0.00278041     0.000132852    
2.76861        0.00293276     0.000136443    
2.77648        0.00258997     0.000128221    
2.78436        0.00259632     0.000128378    
2.79223        0.00272328     0.00013148     
2.80011        0.00229796     0.000120777    
2.80799        0.00221544     0.000118589    
2.81586        0.00239953     0.000123417    
2.82374        0.00236779     0.000122598    
2.83162        0.00236779     0.000122598    
2.83949        0.00213292     0.000116359    
2.84737        0.00216465     0.000117222    
2.85525        0.00200596     0.000112843    
2.86312        0.002025       0.000113377    
2.871          0.00196787     0.000111767    
2.87888        0.00210752     0.000115664    
2.88675        0.00179013     0.0001066      
2.89463        0.00165047     0.000102357    
2.90251        0.00173934     0.000105077    
2.91038        0.00184726     0.000108287    
2.91826        0.00177743     0.000106221    
2.92614        0.00165047     0.000102357    
2.93401        0.00149812     9.75187e-05    
2.94189        0.00165682     0.000102554    
2.94977        0.00142829     9.52189e-05    
2.95764        0.00149812     9.75187e-05    
2.96552        0.00139655     9.4155e-05     
2.9734         0.00137751     9.35108e-05    
2.98127        0.0014156      9.47948e-05    
2.98915        0.00142829     9.52189e-05    
2.99702        0.00126324     8.95486e-05    
3.0049         0.00132672     9.17709e-05    
3.01278        0.00130768     9.11099e-05    
3.02065        0.00102837     8.0796e-05     
3.02853        0.00117437     8.63412e-05    
3.03641        0.00121881     8.79595e-05    
3.04428        0.000971238    7.85197e-05    
3.05216        0.00111724     8.42149e-05    
3.06004        0.00102202     8.05463e-05    
3.06791        0.00116168     8.58732e-05    
3.07579        0.00114263     8.51665e-05    
3.08367        0.00100298     7.97923e-05    
3.09154        0.00112994     8.4692e-05     
3.09942        0.000945846    7.74865e-05    
3.1073         0.000958542    7.80048e-05    
3.11517        0.000983934    7.90312e-05    
3.12305        0.000920454    7.64393e-05    
3.13093        0.00100933     8.00444e-05    
3.1388         0.000780799    7.04021e-05    
3.14668        0.000793495    7.09721e-05    
3.15456        0.000856975    7.37564e-05    
3.16243        0.000818887    7.20988e-05    
3.17031        0.000793495    7.09721e-05    
3.17819        0.000691928    6.62745e-05    
3.18606        0.000723668    6.77775e-05    
3.19394        0.000736364    6.83694e-05    
3.20182        0.000660188    6.47366e-05    
3.20969        0.000641144    6.37961e-05    
3.21757        0.000558621    5.9549e-05     
3.22544        0.000704624    6.68797e-05    
3.23332        0.000507837    5.67778e-05    
3.2412         0.000596708    6.15456e-05    
3.24907        0.000634796    6.34795e-05    
3.25695        0.000533229    5.81799e-05    
3.26483        0.000488793    5.5703e-05     
3.2727         0.000501489    5.64218e-05    
3.28058        0.000393574    4.99838e-05    
3.28846        0.000533229    5.81799e-05    
3.29633        0.000539577    5.85252e-05    
3.30421        0.000495141    5.60636e-05    
3.31209        0.000482445    5.53401e-05    
3.31996        0.00040627     5.07836e-05    
3.32784        0.000558621    5.9549e-05     
3.33572        0.00040627     5.07836e-05    
3.34359        0.000380878    4.9171e-05     
3.35147        0.000450705    5.34888e-05    
3.35935        0.000418965    5.1571e-05     
3.36722        0.000463401    5.42369e-05    
3.3751         0.000323746    4.53335e-05    
3.38298        0.000450705    5.34888e-05    
3.39085        0.000469749    5.46071e-05    
3.39873        0.00031105     4.44357e-05    
3.40661        0.00034279     4.66477e-05    
