p (GeV)        dN/dp          error          
0.00293956     8.50466e-05    1.70093e-05    
0.00881869     0.000632747    4.63952e-05    
0.0146978      0.00168392     7.56863e-05    
0.020577       0.00316714     0.000103798    
0.0264561      0.00541577     0.000135732    
0.0323352      0.00842642     0.000169305    
0.0382143      0.0111343      0.000194615    
0.0440935      0.0148729      0.000224977    
0.0499726      0.0197104      0.000258974    
0.0558517      0.0242655      0.000287291    
0.0617309      0.0291846      0.000315063    
0.06761        0.0354916      0.000347437    
0.0734891      0.0424553      0.000380049    
0.0793683      0.0487045      0.000407129    
0.0852474      0.0558484      0.000435912    
0.0911265      0.0635842      0.000465148    
0.0970056      0.071827       0.000494396    
0.102885       0.0799914      0.000521684    
0.108764       0.0898398      0.000552728    
0.114643       0.0990861      0.000580574    
0.120522       0.109982       0.000611627    
0.126401       0.120878       0.000641337    
0.13228        0.130485       0.000666189    
0.13816        0.141494       0.000693833    
0.144039       0.154751       0.000725472    
0.149918       0.16628        0.000752121    
0.155797       0.179265       0.000780952    
0.161676       0.191154       0.000806578    
0.167555       0.206201       0.000837581    
0.173434       0.218577       0.000862407    
0.179313       0.232429       0.000889252    
0.185193       0.246693       0.000916042    
0.191072       0.261658       0.000943376    
0.196951       0.278045       0.000972442    
0.20283        0.291176       0.000995116    
0.208709       0.306552       0.00102114     
0.214588       0.323126       0.00104838     
0.220467       0.339809       0.00107527     
0.226347       0.356029       0.00110061     
0.232226       0.371242       0.00112402     
0.238105       0.387887       0.00114859     
0.243984       0.406431       0.00117572     
0.249863       0.422141       0.00119846     
0.255742       0.438609       0.00122142     
0.261621       0.457302       0.00124716     
0.2675         0.47392        0.00126984     
0.27338        0.4921         0.0012939      
0.279259       0.509691       0.00131667     
0.285138       0.528772       0.00134121     
0.291017       0.544819       0.00136155     
0.296896       0.560923       0.00138146     
0.302775       0.582004       0.00140684     
0.308654       0.597997       0.00142622     
0.314533       0.616129       0.00144773     
0.320413       0.639693       0.0014753      
0.326292       0.650103       0.00148727     
0.332171       0.674113       0.00151444     
0.33805        0.68849        0.00153019     
0.343929       0.709363       0.00155341     
0.349808       0.726121       0.00157177     
0.355687       0.746355       0.00159334     
0.361566       0.762701       0.00161095     
0.367446       0.779027       0.00162782     
0.373325       0.795407       0.001645       
0.379204       0.815219       0.00166549     
0.385083       0.831507       0.001682       
0.390962       0.850639       0.00170136     
0.396841       0.866329       0.00171674     
0.40272        0.886267       0.00173644     
0.4086         0.896656       0.00174676     
0.414479       0.916972       0.00176629     
0.420358       0.934509       0.001783       
0.426237       0.95011        0.00179761     
0.432116       0.966555       0.0018135      
0.437995       0.98356        0.00182906     
0.443874       1.00192        0.00184626     
0.449753       1.01696        0.00186015     
0.455633       1.0312         0.00187282     
0.461512       1.04857        0.00188839     
0.467391       1.06083        0.00189957     
0.47327        1.07587        0.00191329     
0.479149       1.08965        0.00192523     
0.485028       1.10791        0.00194153     
0.490907       1.11587        0.00194829     
0.496786       1.13318        0.00196335     
0.502666       1.14339        0.00197266     
0.508545       1.15876        0.00198557     
0.514424       1.17233        0.00199717     
0.520303       1.18773        0.00200976     
0.526182       1.19854        0.00201928     
0.532061       1.2095         0.00202871     
0.53794        1.22017        0.00203733     
0.54382        1.22806        0.00204397     
0.549699       1.24796        0.00206035     
0.555578       1.25436        0.00206567     
0.561457       1.26565        0.00207491     
0.567336       1.27571        0.0020834      
0.573215       1.28289        0.00208906     
0.579094       1.29214        0.00209645     
0.584973       1.30498        0.00210693     
0.590853       1.31732        0.00211705     
0.596732       1.32356        0.00212186     
0.602611       1.33495        0.00213108     
0.60849        1.33915        0.00213471     
0.614369       1.34798        0.00214108     
0.620248       1.35877        0.0021503      
0.626127       1.36259        0.00215344     
0.632006       1.36792        0.00215713     
0.637886       1.37553        0.00216369     
0.643765       1.38255        0.00216858     
0.649644       1.3877         0.00217292     
0.655523       1.3945         0.00217808     
0.661402       1.39858        0.00218144     
0.667281       1.40033        0.00218319     
0.67316        1.40412        0.00218578     
0.67904        1.40804        0.00218839     
0.684919       1.41497        0.00219409     
0.690798       1.41838        0.00219656     
0.696677       1.42832        0.00220423     
0.702556       1.42942        0.00220522     
0.708435       1.42936        0.00220521     
0.714314       1.43069        0.00220598     
0.720193       1.43487        0.00220918     
0.726073       1.43638        0.00221056     
0.731952       1.43574        0.00221018     
0.737831       1.44221        0.00221468     
0.74371        1.44441        0.00221699     
0.749589       1.43941        0.0022126      
0.755468       1.44181        0.00221487     
0.761347       1.43906        0.00221269     
0.767226       1.44509        0.00221732     
0.773106       1.4375         0.00221131     
0.778985       1.43908        0.00221231     
0.784864       1.44162        0.00221493     
0.790743       1.44084        0.0022141      
0.796622       1.43834        0.00221173     
0.802501       1.43522        0.00220943     
0.80838        1.43404        0.00220844     
0.81426        1.43245        0.00220765     
0.820139       1.43437        0.00220947     
0.826018       1.42748        0.00220388     
0.831897       1.42674        0.0022029      
0.837776       1.41895        0.00219696     
0.843655       1.42182        0.00219916     
0.849534       1.41511        0.00219392     
0.855413       1.41521        0.00219445     
0.861293       1.40956        0.00218992     
0.867172       1.40719        0.00218765     
0.873051       1.3987         0.00218124     
0.87893        1.39597        0.00217938     
0.884809       1.38961        0.00217394     
0.890688       1.38345        0.00216952     
0.896567       1.38313        0.00216897     
0.902446       1.37858        0.00216578     
0.908326       1.3694         0.00215855     
0.914205       1.36432        0.00215442     
0.920084       1.36364        0.00215406     
0.925963       1.35011        0.00214302     
0.931842       1.35121        0.00214429     
0.937721       1.34095        0.00213556     
0.9436         1.3356         0.00213164     
0.949479       1.3276         0.00212507     
0.955359       1.32417        0.00212219     
0.961238       1.31798        0.00211778     
0.967117       1.31223        0.0021128      
0.972996       1.30188        0.00210423     
0.978875       1.29529        0.00209928     
0.984754       1.29266        0.00209706     
0.990633       1.2852         0.00209096     
0.996513       1.27868        0.00208539     
1.00239        1.26788        0.00207694     
1.00827        1.26155        0.00207177     
1.01415        1.25562        0.0020671      
1.02003        1.24435        0.00205764     
1.02591        1.23966        0.00205333     
1.03179        1.23352        0.00204896     
1.03767        1.22069        0.00203762     
1.04355        1.21501        0.00203306     
1.04942        1.20108        0.00202151     
1.0553         1.1984         0.00201939     
1.06118        1.18779        0.00201013     
1.06706        1.17907        0.00200282     
1.07294        1.17414        0.00199865     
1.07882        1.16786        0.00199324     
1.0847         1.15942        0.00198598     
1.09058        1.14821        0.00197638     
1.09646        1.14037        0.00196935     
1.10234        1.13501        0.00196513     
1.10822        1.12358        0.00195512     
1.1141         1.11007        0.0019432      
1.11997        1.10645        0.00194028     
1.12585        1.09742        0.00193225     
1.13173        1.08753        0.00192364     
1.13761        1.08066        0.00191777     
1.14349        1.07239        0.00190992     
1.14937        1.06881        0.00190655     
1.15525        1.05169        0.00189173     
1.16113        1.04427        0.00188497     
1.16701        1.03494        0.00187669     
1.17289        1.02614        0.00186851     
1.17877        1.01567        0.00185859     
1.18464        1.00795        0.00185194     
1.19052        0.998896       0.00184329     
1.1964         0.990895       0.0018361      
1.20228        0.981611       0.00182744     
1.20816        0.9746         0.00182097     
1.21404        0.963234       0.00181024     
1.21992        0.956669       0.00180408     
1.2258         0.946773       0.0017946      
1.23168        0.936414       0.0017847      
1.23756        0.931424       0.0017801      
1.24344        0.920497       0.00176946     
1.24932        0.911244       0.00176056     
1.25519        0.90078        0.00175025     
1.26107        0.895558       0.00174565     
1.26695        0.883447       0.00173367     
1.27283        0.877609       0.00172787     
1.27871        0.869095       0.00171941     
1.28459        0.85743        0.00170801     
1.29047        0.850568       0.00170096     
1.29635        0.842873       0.00169318     
1.30223        0.831511       0.00168182     
1.30811        0.823411       0.00167394     
1.31399        0.816958       0.00166694     
1.31986        0.806572       0.00165657     
1.32574        0.802632       0.00165221     
1.33162        0.790389       0.00163991     
1.3375         0.785126       0.00163409     
1.34338        0.775067       0.00162382     
1.34926        0.764651       0.00161271     
1.35514        0.757762       0.00160546     
1.36102        0.751492       0.00159899     
1.3669         0.741766       0.00158858     
1.37278        0.735367       0.00158146     
1.37866        0.72509        0.00157061     
1.38454        0.714599       0.00155894     
1.39041        0.710177       0.00155446     
1.39629        0.701706       0.00154524     
1.40217        0.691296       0.00153361     
1.40805        0.687449       0.00152916     
1.41393        0.67826        0.00151909     
1.41981        0.673321       0.00151348     
1.42569        0.66088        0.00149954     
1.43157        0.6574         0.00149541     
1.43745        0.648994       0.00148568     
1.44333        0.640438       0.00147596     
1.44921        0.630801       0.00146489     
1.45508        0.623235       0.00145628     
1.46096        0.617574       0.00144938     
1.46684        0.611852       0.00144279     
1.47272        0.602103       0.00143127     
1.4786         0.596268       0.00142424     
1.48448        0.589291       0.00141589     
1.49036        0.580974       0.00140576     
1.49624        0.57664        0.0014007      
1.50212        0.565271       0.001387       
1.508          0.559964       0.00138013     
1.51388        0.55449        0.0013736      
1.51976        0.546486       0.00136362     
1.52563        0.538498       0.00135345     
1.53151        0.529487       0.00134212     
1.53739        0.525768       0.00133714     
1.54327        0.522652       0.00133348     
1.54915        0.513685       0.00132192     
1.55503        0.508011       0.00131451     
1.56091        0.499326       0.00130323     
1.56679        0.495757       0.00129868     
1.57267        0.489055       0.00128965     
1.57855        0.483102       0.00128192     
1.58443        0.47687        0.00127357     
1.5903         0.472624       0.00126798     
1.59618        0.465389       0.00125838     
1.60206        0.457476       0.00124741     
1.60794        0.453138       0.00124133     
1.61382        0.445753       0.00123138     
1.6197         0.442004       0.00122621     
1.62558        0.436048       0.00121787     
1.63146        0.426965       0.00120508     
1.63734        0.423723       0.00120047     
1.64322        0.417912       0.00119221     
1.6491         0.413847       0.00118646     
1.65498        0.407669       0.00117751     
1.66085        0.40107        0.00116791     
1.66673        0.396106       0.00116093     
1.67261        0.393085       0.00115645     
1.67849        0.383424       0.00114225     
1.68437        0.380298       0.00113769     
1.69025        0.376304       0.00113131     
1.69613        0.371245       0.00112388     
1.70201        0.365255       0.00111505     
1.70789        0.361074       0.00110836     
1.71377        0.353328       0.00109646     
1.71965        0.350161       0.0010914      
1.72552        0.344565       0.0010825      
1.7314         0.341459       0.00107795     
1.73728        0.3374         0.00107145     
1.74316        0.332192       0.00106306     
1.74904        0.328494       0.00105708     
1.75492        0.321065       0.00104494     
1.7608         0.317581       0.00103944     
1.76668        0.311852       0.00102978     
1.77256        0.308342       0.00102413     
1.77844        0.303317       0.00101572     
1.78432        0.30016        0.0010105      
1.7902         0.296626       0.0010046      
1.79607        0.293295       0.000998917    
1.80195        0.287917       0.00098983     
1.80783        0.283824       0.000982631    
1.81371        0.280528       0.000976975    
1.81959        0.275514       0.000968354    
1.82547        0.271744       0.000961575    
1.83135        0.267301       0.000953563    
1.83723        0.264145       0.000947945    
1.84311        0.260467       0.000941455    
1.84899        0.256031       0.000932996    
1.85487        0.252218       0.000926339    
1.86074        0.247955       0.000918413    
1.86662        0.24522        0.000913349    
1.8725         0.243645       0.000910457    
1.87838        0.23812        0.000900107    
1.88426        0.234531       0.000893149    
1.89014        0.233351       0.000890957    
1.89602        0.227486       0.000879785    
1.9019         0.22372        0.000872308    
1.90778        0.222057       0.000869133    
1.91366        0.217808       0.000860786    
1.91954        0.214525       0.000854223    
1.92542        0.210307       0.00084579     
1.93129        0.209354       0.000843808    
1.93717        0.206316       0.000837801    
1.94305        0.202275       0.00082952     
1.94893        0.199611       0.000823912    
1.95481        0.195315       0.0008151      
1.96069        0.193692       0.000811615    
1.96657        0.191464       0.000807043    
1.97245        0.186021       0.000795354    
1.97833        0.184691       0.000792759    
1.98421        0.180778       0.000784235    
1.99009        0.178799       0.000779849    
1.99596        0.176574       0.000775051    
2.00184        0.173083       0.000767324    
2.00772        0.171481       0.000763726    
2.0136         0.16796        0.000755859    
2.01948        0.164837       0.000748859    
2.02536        0.164807       0.000748727    
2.03124        0.161245       0.000740607    
2.03712        0.159047       0.000735521    
2.043          0.156459       0.000729553    
2.04888        0.155826       0.000728015    
2.05476        0.151825       0.000718608    
2.06064        0.148746       0.000711264    
2.06651        0.146855       0.000706734    
2.07239        0.143344       0.000698282    
2.07827        0.140875       0.000692233    
2.08415        0.140198       0.00069047     
2.09003        0.137435       0.000683744    
2.09591        0.136408       0.000681119    
2.10179        0.133431       0.000673743    
2.10767        0.131992       0.00066995     
2.11355        0.129652       0.000664026    
2.11943        0.126423       0.000655787    
2.12531        0.126117       0.000654976    
2.13118        0.123702       0.000648736    
2.13706        0.122937       0.000646693    
2.14294        0.119334       0.000637197    
2.14882        0.118048       0.000633651    
2.1547         0.116351       0.00062912     
2.16058        0.114122       0.00062302     
2.16646        0.112085       0.000617514    
2.17234        0.110639       0.000613448    
2.17822        0.10956        0.000610568    
2.1841         0.107026       0.000603341    
2.18998        0.105516       0.000599151    
2.19586        0.103981       0.000594687    
2.20173        0.102294       0.000590063    
2.20761        0.100267       0.000584018    
2.21349        0.0990725      0.000580534    
2.21937        0.0969225      0.000574147    
2.22525        0.094929       0.000568299    
2.23113        0.094133       0.000565955    
2.23701        0.0921871      0.000560021    
2.24289        0.0910781      0.000556583    
2.24877        0.0899555      0.000553146    
2.25465        0.0886254      0.000549108    
2.26053        0.0866319      0.000542819    
2.2664         0.0849445      0.000537662    
2.27228        0.083162       0.000531955    
2.27816        0.0827435      0.000530594    
2.28404        0.0811072      0.000525372    
2.28992        0.081114       0.000525262    
2.2958         0.0794777      0.000519986    
2.30168        0.0775319      0.000513564    
2.30756        0.0768617      0.000511319    
2.31344        0.0743273      0.000502849    
2.31932        0.0736367      0.000500486    
2.3252         0.0725788      0.000496881    
2.33108        0.0708336      0.000490875    
2.33695        0.0702825      0.000488964    
2.34283        0.06933        0.000485665    
2.34871        0.0665405      0.000475779    
2.35459        0.0670711      0.000477622    
2.36047        0.064945       0.000470143    
2.36635        0.0650572      0.000470401    
2.37223        0.0636319      0.000465273    
2.37811        0.0635706      0.000464974    
2.38399        0.0615193      0.000457389    
2.38987        0.0600225      0.000451895    
2.39575        0.0604273      0.000453389    
2.40162        0.0577841      0.000443369    
2.4075         0.0565594      0.000438702    
2.41338        0.056294       0.000437619    
2.41926        0.0555831      0.000434822    
2.42514        0.0550524      0.00043277     
2.43102        0.0531167      0.000425044    
2.4369         0.0535521      0.000426836    
2.44278        0.0519737      0.000420531    
2.44866        0.0511334      0.000417037    
2.45454        0.0504224      0.000414157    
2.46042        0.0494529      0.000410158    
2.4663         0.0491467      0.000408859    
2.47217        0.047837       0.000403376    
2.47805        0.0470954      0.000400296    
2.48393        0.0472621      0.000400946    
2.48981        0.0455646      0.000393683    
2.49569        0.0446086      0.000389533    
2.50157        0.0439589      0.000386747    
2.50745        0.0429553      0.00038234     
2.51333        0.0424995      0.000380216    
2.51921        0.0418497      0.0003773      
2.52509        0.0416048      0.000376164    
2.53097        0.040108       0.000369431    
2.53684        0.040159       0.000369666    
2.54272        0.03839        0.000361374    
