p (GeV)        dN/dp          error          
0.00293956     0.000102056    2.9461e-05     
0.00881869     0.000467756    6.30722e-05    
0.0146978      0.00144579     0.000110887    
0.020577       0.00294261     0.000158194    
0.0264561      0.0043714      0.000192811    
0.0323352      0.00694831     0.000243086    
0.0382143      0.00955073     0.000284993    
0.0440935      0.0129781      0.000332214    
0.0499726      0.0158017      0.000366572    
0.0558517      0.0194672      0.000406869    
0.0617309      0.0233283      0.000445552    
0.06761        0.0288223      0.000495058    
0.0734891      0.0361873      0.000554703    
0.0793683      0.0400144      0.000583292    
0.0852474      0.0463079      0.000627591    
0.0911265      0.0527289      0.000669662    
0.0970056      0.0591414      0.00070929     
0.102885       0.0660217      0.000749375    
0.108764       0.0752577      0.000799939    
0.114643       0.0816107      0.00083317     
0.120522       0.090311       0.000876243    
0.126401       0.100525       0.000924743    
0.13228        0.10812        0.00095914     
0.13816        0.119541       0.00100801     
0.144039       0.130946       0.00105558     
0.149918       0.136661       0.00107778     
0.155797       0.148015       0.0011218      
0.161676       0.15891        0.00116267     
0.167555       0.168511       0.00119727     
0.173434       0.182051       0.00124445     
0.179313       0.19394        0.00128434     
0.185193       0.204911       0.00132014     
0.191072       0.219157       0.00136483     
0.196951       0.231361       0.00140291     
0.20283        0.244645       0.0014424      
0.208709       0.256662       0.0014774      
0.214588       0.269172       0.00151292     
0.220467       0.28318        0.00155218     
0.226347       0.294959       0.00158392     
0.232226       0.310726       0.00162546     
0.238105       0.323526       0.00165871     
0.243984       0.338443       0.00169671     
0.249863       0.350477       0.00172628     
0.255742       0.366245       0.00176494     
0.261621       0.379469       0.00179635     
0.2675         0.397976       0.00183979     
0.27338        0.408964       0.00186439     
0.279259       0.425267       0.00190157     
0.285138       0.435847       0.00192519     
0.291017       0.450432       0.00195745     
0.296896       0.468207       0.00199574     
0.302775       0.480836       0.00202229     
0.308654       0.496111       0.00205433     
0.314533       0.517381       0.00209819     
0.320413       0.53081        0.00212462     
0.326292       0.545038       0.00215233     
0.332171       0.557285       0.00217776     
0.33805        0.575247       0.0022122      
0.343929       0.588174       0.00223684     
0.349808       0.608704       0.00227529     
0.355687       0.616333       0.00229004     
0.361566       0.635213       0.00232442     
0.367446       0.646652       0.00234473     
0.373325       0.665719       0.00237925     
0.379204       0.677098       0.00239973     
0.385083       0.696872       0.00243442     
0.390962       0.705632       0.00244975     
0.396841       0.72259        0.00247944     
0.40272        0.737031       0.00250393     
0.4086         0.7508         0.00252672     
0.414479       0.76291        0.00254738     
0.420358       0.776348       0.00256909     
0.426237       0.792252       0.00259554     
0.432116       0.80625        0.00261877     
0.437995       0.821525       0.00264294     
0.443874       0.830284       0.00265689     
0.449753       0.848969       0.00268733     
0.455633       0.859694       0.00270438     
0.461512       0.875146       0.00272729     
0.467391       0.884017       0.00274199     
0.47327        0.897701       0.00276297     
0.479149       0.908757       0.00277996     
0.485028       0.917449       0.00279292     
0.490907       0.930019       0.0028121      
0.496786       0.943201       0.00283231     
0.502666       0.955533       0.00285048     
0.508545       0.968          0.00286911     
0.514424       0.981208       0.00288827     
0.520303       0.985341       0.00289483     
0.526182       0.995513       0.00290979     
0.532061       1.00805        0.00292818     
0.53794        1.0141         0.00293695     
0.54382        1.02587        0.00295343     
0.549699       1.03748        0.00297016     
0.555578       1.04065        0.00297504     
0.561457       1.04778        0.00298539     
0.567336       1.06264        0.00300636     
0.573215       1.07234        0.00302026     
0.579094       1.08127        0.00303257     
0.584973       1.08224        0.0030334      
0.590853       1.0913         0.00304738     
0.596732       1.10096        0.00305972     
0.602611       1.09999        0.00305865     
0.60849        1.11793        0.00308358     
0.614369       1.1217         0.00308887     
0.620248       1.12614        0.00309507     
0.626127       1.1342         0.00310636     
0.632006       1.13336        0.00310533     
0.637886       1.1405         0.00311387     
0.643765       1.1489         0.00312468     
0.649644       1.15488        0.00313403     
0.655523       1.15771        0.00313823     
0.661402       1.16748        0.00315082     
0.667281       1.16744        0.00315117     
0.67316        1.16941        0.00315314     
0.67904        1.17449        0.00316182     
0.684919       1.17459        0.00316096     
0.690798       1.17238        0.00315824     
0.696677       1.17568        0.00316094     
0.702556       1.18318        0.0031721      
0.708435       1.181          0.00316986     
0.714314       1.19337        0.00318614     
0.720193       1.1882         0.00317931     
0.726073       1.19234        0.0031835      
0.731952       1.18906        0.00318056     
0.737831       1.18898        0.00318015     
0.74371        1.19351        0.00318621     
0.749589       1.19222        0.00318519     
0.755468       1.19434        0.00318678     
0.761347       1.19571        0.00318856     
0.767226       1.19622        0.0031898      
0.773106       1.19838        0.0031928      
0.778985       1.19047        0.003182       
0.784864       1.19028        0.00318061     
0.790743       1.19041        0.00318158     
0.796622       1.18619        0.00317626     
0.802501       1.18966        0.00318018     
0.80838        1.18648        0.00317653     
0.81426        1.18871        0.00317862     
0.820139       1.18515        0.00317451     
0.826018       1.18588        0.00317543     
0.831897       1.18205        0.00317004     
0.837776       1.17239        0.00315821     
0.843655       1.16959        0.00315305     
0.849534       1.16427        0.00314653     
0.855413       1.16334        0.0031453      
0.861293       1.16367        0.00314609     
0.867172       1.16012        0.00314184     
0.873051       1.15236        0.00313122     
0.87893        1.15399        0.00313316     
0.884809       1.15048        0.00312723     
0.890688       1.14137        0.00311559     
0.896567       1.14165        0.00311643     
0.902446       1.12994        0.00309892     
0.908326       1.13137        0.00310206     
0.914205       1.12515        0.00309339     
0.920084       1.11817        0.00308433     
0.925963       1.11735        0.00308258     
0.931842       1.1073         0.00306913     
0.937721       1.11071        0.0030732      
0.9436         1.10181        0.00306121     
0.949479       1.0903         0.00304564     
0.955359       1.08465        0.00303716     
0.961238       1.08391        0.00303578     
0.967117       1.08008        0.00303048     
0.972996       1.07399        0.0030226      
0.978875       1.06755        0.00301299     
0.984754       1.06103        0.00300325     
0.990633       1.05123        0.00298975     
0.996513       1.04606        0.00298319     
1.00239        1.04           0.0029743      
1.00827        1.03338        0.00296411     
1.01415        1.02387        0.00295047     
1.02003        1.02306        0.00295038     
1.02591        1.01432        0.0029378      
1.03179        1.00794        0.00292824     
1.03767        1.00277        0.00292047     
1.04355        0.989687       0.00290118     
1.04942        0.984797       0.00289414     
1.0553         0.982288       0.00289002     
1.06118        0.971623       0.00287442     
1.06706        0.96908        0.00287095     
1.07294        0.955413       0.00285056     
1.07882        0.95617        0.00285147     
1.0847         0.9469         0.00283802     
1.09058        0.939935       0.00282717     
1.09646        0.930537       0.00281344     
1.10234        0.922415       0.00280091     
1.10822        0.915527       0.00279024     
1.1141         0.904972       0.00277514     
1.11997        0.901324       0.00276869     
1.12585        0.893261       0.00275651     
1.13173        0.890251       0.00275115     
1.13761        0.884272       0.00274212     
1.14349        0.870511       0.00272071     
1.14937        0.868683       0.0027183      
1.15525        0.855246       0.00269715     
1.16113        0.847736       0.00268492     
1.16701        0.840558       0.00267358     
1.17289        0.833304       0.00266276     
1.17877        0.827725       0.0026536      
1.18464        0.821661       0.00264278     
1.19052        0.812144       0.00262831     
1.1964         0.801156       0.00261098     
1.20228        0.797091       0.00260377     
1.20816        0.792413       0.00259641     
1.21404        0.784716       0.0025828      
1.21992        0.780337       0.0025763      
1.2258         0.762247       0.00254625     
1.23168        0.762137       0.0025461      
1.23756        0.751072       0.00252777     
1.24344        0.749405       0.00252468     
1.24932        0.738009       0.00250555     
1.25519        0.730397       0.00249245     
1.26107        0.718584       0.00247198     
1.26695        0.713388       0.00246254     
1.27283        0.711338       0.00245909     
1.27871        0.697816       0.00243617     
1.28459        0.695885       0.00243289     
1.29047        0.686471       0.00241633     
1.29635        0.679344       0.00240374     
1.30223        0.672634       0.00239196     
1.30811        0.668075       0.00238345     
1.31399        0.656942       0.00236311     
1.31986        0.654442       0.00235941     
1.32574        0.644202       0.00234121     
1.33162        0.636302       0.00232689     
1.3375         0.631548       0.00231719     
1.34338        0.622022       0.00230075     
1.34926        0.616613       0.00228986     
1.35514        0.611961       0.00228155     
1.36102        0.605914       0.00227011     
1.3669         0.596126       0.00225189     
1.37278        0.593438       0.00224624     
1.37866        0.577109       0.00221549     
1.38454        0.578606       0.00221912     
1.39041        0.571054       0.00220359     
1.39629        0.565849       0.00219375     
1.40217        0.558518       0.00217952     
1.40805        0.552378       0.00216736     
1.41393        0.543771       0.00215058     
1.41981        0.537282       0.00213816     
1.42569        0.534909       0.00213266     
1.43157        0.527297       0.00211728     
1.43745        0.514608       0.00209235     
1.44333        0.513656       0.00208977     
1.44921        0.506504       0.00207539     
1.45508        0.497795       0.00205737     
1.46096        0.489894       0.00204107     
1.46684        0.487291       0.00203602     
1.47272        0.48184        0.00202406     
1.4786         0.475121       0.00201038     
1.48448        0.469057       0.00199722     
1.49036        0.464508       0.00198821     
1.49624        0.457976       0.00197369     
1.50212        0.451181       0.00195859     
1.508          0.447243       0.00195003     
1.51388        0.439266       0.00193283     
1.51976        0.435209       0.00192378     
1.52563        0.430838       0.00191475     
1.53151        0.42525        0.00190187     
1.53739        0.420241       0.00189073     
1.54327        0.416201       0.00188121     
1.54915        0.407815       0.00186198     
1.55503        0.402594       0.00185027     
1.56091        0.396674       0.00183672     
1.56679        0.395917       0.00183529     
1.57267        0.391367       0.00182413     
1.57855        0.381689       0.00180181     
1.58443        0.376782       0.00179016     
1.5903         0.370591       0.00177513     
1.59618        0.367512       0.00176782     
1.60206        0.365131       0.00176219     
1.60794        0.356354       0.0017408      
1.61382        0.353845       0.00173515     
1.6197         0.348708       0.00172164     
1.62558        0.343877       0.00171014     
1.63146        0.341318       0.00170392     
1.63734        0.335415       0.00168884     
1.64322        0.329377       0.00167384     
1.6491         0.324878       0.00166246     
1.65498        0.318482       0.00164595     
1.66085        0.31878        0.00164637     
1.66673        0.312784       0.00163091     
1.67261        0.308762       0.00162109     
1.67849        0.304594       0.00160981     
1.68437        0.301116       0.00159995     
1.69025        0.293139       0.00157909     
1.69613        0.28915        0.00156816     
1.70201        0.28744        0.00156335     
1.70789        0.281802       0.00154822     
1.71377        0.28136        0.00154683     
1.71965        0.276538       0.00153384     
1.72552        0.272574       0.00152323     
1.7314         0.267072       0.00150664     
1.73728        0.265099       0.00150132     
1.74316        0.261272       0.00149052     
1.74904        0.256398       0.00147699     
1.75492        0.25258        0.0014652      
1.7608         0.247945       0.00145177     
1.76668        0.24587        0.00144585     
1.77256        0.240784       0.00143091     
1.77844        0.23995        0.00142838     
1.78432        0.23677        0.00141896     
1.7902         0.22977        0.00139814     
1.79607        0.227848       0.00139178     
1.80195        0.224242       0.0013808      
1.80783        0.221325       0.00137171     
1.81371        0.218306       0.00136208     
1.81959        0.216741       0.00135746     
1.82547        0.213399       0.00134757     
1.83135        0.207956       0.00132956     
1.83723        0.205047       0.00132074     
1.84311        0.201994       0.00131068     
1.84899        0.199069       0.0013009      
1.85487        0.197835       0.00129687     
1.86074        0.193481       0.00128271     
1.86662        0.189186       0.00126854     
1.8725         0.186184       0.00125812     
1.87838        0.183905       0.00125087     
1.88426        0.180775       0.00123974     
1.89014        0.178258       0.00123139     
1.89602        0.17654        0.00122539     
1.9019         0.174371       0.00121762     
1.90778        0.172279       0.00121067     
1.91366        0.16829        0.00119648     
1.91954        0.166275       0.00118949     
1.92542        0.166326       0.00118919     
1.93129        0.161886       0.00117355     
1.93717        0.161121       0.00117053     
1.94305        0.155865       0.00115144     
1.94893        0.154683       0.00114695     
1.95481        0.149699       0.00112822     
1.96069        0.14833        0.00112306     
1.96657        0.147428       0.00111958     
1.97245        0.143108       0.00110334     
1.97833        0.143865       0.00110612     
1.98421        0.14173        0.00109763     
1.99009        0.139085       0.00108762     
1.99596        0.135998       0.0010757      
2.00184        0.133234       0.00106474     
2.00772        0.132817       0.0010626      
2.0136         0.128505       0.0010453      
2.01948        0.127902       0.00104277     
2.02536        0.126124       0.00103565     
2.03124        0.124746       0.00103013     
2.03712        0.122986       0.00102277     
2.043          0.12052        0.00101262     
2.04888        0.116965       0.000997388    
2.05476        0.115859       0.000992524    
2.06064        0.114311       0.000985953    
2.06651        0.1121         0.000976308    
2.07239        0.109719       0.000966119    
2.07827        0.109013       0.000963086    
2.08415        0.105602       0.000947852    
2.09003        0.104505       0.000942846    
2.09591        0.101784       0.000930273    
2.10179        0.102541       0.000934032    
2.10767        0.0989347      0.000917173    
2.11355        0.100874       0.000926031    
2.11943        0.0971998      0.000909023    
2.12531        0.0950481      0.000899235    
2.13118        0.0941296      0.000894643    
2.13706        0.0920629      0.000884858    
2.14294        0.0909914      0.000879617    
2.14882        0.0906342      0.000878055    
2.1547         0.0879212      0.00086458     
2.16058        0.0883124      0.000866917    
2.16646        0.085795       0.000853984    
2.17234        0.0835668      0.000843171    
2.17822        0.0826653      0.000838444    
2.1841         0.0814916      0.00083265     
2.18998        0.0803435      0.000826508    
2.19586        0.0787617      0.000818249    
2.20173        0.0764654      0.000806507    
2.20761        0.0757935      0.00080287     
2.21349        0.0751472      0.000799533    
2.21937        0.0719069      0.000782032    
2.22525        0.0717623      0.000781339    
2.23113        0.0705291      0.000774417    
2.23701        0.0713541      0.000779116    
2.24289        0.0695851      0.000769409    
2.24877        0.0672889      0.000756526    
2.25465        0.066532       0.000752167    
2.26053        0.0659621      0.000749038    
2.2664         0.0650266      0.000743517    
2.27228        0.0626453      0.00072998     
2.27816        0.0628409      0.000731018    
2.28404        0.0604086      0.00071674     
2.28992        0.0607063      0.000718503    
2.2958         0.060162       0.000715378    
2.30168        0.0580613      0.000702583    
2.30756        0.0561137      0.000691122    
2.31344        0.0556035      0.000687557    
2.31932        0.0553398      0.000686031    
2.3252         0.0532477      0.000672946    
2.33108        0.0541066      0.000678455    
2.33695        0.0519805      0.000665004    
2.34283        0.0498203      0.000650942    
2.34871        0.0502881      0.000653878    
2.35459        0.0498373      0.000650942    
2.36047        0.0478217      0.000637646    
2.36635        0.0491059      0.000646149    
2.37223        0.0470223      0.000632524    
2.37811        0.0461633      0.000626495    
2.38399        0.0459847      0.000625283    
2.38987        0.0461718      0.000626669    
2.39575        0.04385        0.000610601    
2.40162        0.0434503      0.000607931    
2.4075         0.0421661      0.000598765    
2.41338        0.0425998      0.000601836    
2.41926        0.0407118      0.000588351    
2.42514        0.0411966      0.000591965    
2.43102        0.0399889      0.000583106    
2.4369         0.0388068      0.000574424    
2.44278        0.039249       0.000577937    
2.44866        0.0383645      0.000571142    
2.45454        0.0384326      0.000571648    
2.46042        0.0367997      0.000559505    
2.4663         0.036536       0.000557369    
2.47217        0.0347075      0.000543245    
2.47805        0.035541       0.000549728    
2.48393        0.0353709      0.000548411    
2.48981        0.032845       0.000528471    
2.49569        0.0325133      0.000525796    
2.50157        0.0321986      0.000523246    
2.50745        0.0316799      0.000519015    
2.51333        0.0319605      0.000521447    
2.51921        0.0307018      0.000510942    
2.52509        0.03003        0.000505321    
2.53097        0.0287628      0.000494546    
2.53684        0.029154       0.000497898    
2.54272        0.0292815      0.000498986    
