pT (GeV)       dN/dpt         error          
0.00393827     0.0202944      0.00035901     
0.0118148      0.060331       0.000618706    
0.0196914      0.0987616      0.000791942    
0.0275679      0.138716       0.000938342    
0.0354444      0.177787       0.00106225     
0.043321       0.218973       0.00117918     
0.0511975      0.256337       0.00127541     
0.0590741      0.295682       0.00136984     
0.0669506      0.337299       0.00146314     
0.0748272      0.372638       0.0015377      
0.0827037      0.410796       0.00161495     
0.0905803      0.448915       0.00168815     
0.0984568      0.487904       0.00175996     
0.106333       0.522907       0.00182202     
0.11421        0.563959       0.00189214     
0.122086       0.600752       0.00195277     
0.129963       0.63227        0.00200364     
0.13784        0.668663       0.00206032     
0.145716       0.701551       0.00211025     
0.153593       0.742521       0.00217104     
0.161469       0.774242       0.00221749     
0.169346       0.804325       0.00225983     
0.177222       0.840838       0.00231042     
0.185099       0.874736       0.00235666     
0.192975       0.906508       0.00239909     
0.200852       0.934687       0.00243588     
0.208728       0.9659         0.00247681     
0.216605       0.998439       0.00251797     
0.224482       1.02777        0.00255458     
0.232358       1.05141        0.00258425     
0.240235       1.08309        0.00262203     
0.248111       1.10634        0.00264933     
0.255988       1.136          0.00268597     
0.263864       1.16179        0.00271522     
0.271741       1.18277        0.00274005     
0.279617       1.21099        0.00277233     
0.287494       1.23202        0.00279763     
0.29537        1.25478        0.00282316     
0.303247       1.27991        0.00285045     
0.311123       1.30326        0.00287665     
0.319          1.32207        0.00289718     
0.326877       1.33965        0.00291579     
0.334753       1.35998        0.00293876     
0.34263        1.37554        0.00295498     
0.350506       1.39367        0.00297447     
0.358383       1.41069        0.00299277     
0.366259       1.42237        0.00300508     
0.374136       1.43805        0.00302176     
0.382012       1.45071        0.00303501     
0.389889       1.4682         0.00305273     
0.397765       1.47945        0.00306478     
0.405642       1.49919        0.0030854      
0.413519       1.49873        0.00308481     
0.421395       1.51494        0.00310064     
0.429272       1.52502        0.0031109      
0.437148       1.53155        0.00311808     
0.445025       1.53728        0.0031238      
0.452901       1.54737        0.00313307     
0.460778       1.55486        0.00314217     
0.468654       1.56296        0.00314846     
0.476531       1.56228        0.00314871     
0.484407       1.57006        0.00315648     
0.492284       1.5764         0.00316318     
0.500161       1.57417        0.00316084     
0.508037       1.58068        0.00316841     
0.515914       1.58033        0.00316744     
0.52379        1.57875        0.00316561     
0.531667       1.57956        0.00316695     
0.539543       1.58362        0.0031705      
0.54742        1.57916        0.00316547     
0.555296       1.58288        0.00316967     
0.563173       1.57016        0.00315776     
0.571049       1.57413        0.00316182     
0.578926       1.57258        0.00315993     
0.586803       1.57752        0.00316411     
0.594679       1.56846        0.00315507     
0.602556       1.55765        0.00314485     
0.610432       1.55439        0.00314167     
0.618309       1.55702        0.00314388     
0.626185       1.54816        0.0031354      
0.634062       1.53572        0.00312222     
0.641938       1.53546        0.00312274     
0.649815       1.52874        0.00311503     
0.657691       1.52067        0.00310672     
0.665568       1.50579        0.00309153     
0.673445       1.50702        0.00309378     
0.681321       1.49735        0.00308335     
0.689198       1.48599        0.00307225     
0.697074       1.47956        0.00306465     
0.704951       1.47191        0.00305687     
0.712827       1.45788        0.00304179     
0.720704       1.45074        0.00303437     
0.72858        1.43602        0.00301976     
0.736457       1.42509        0.00300755     
0.744333       1.41461        0.00299705     
0.75221        1.40882        0.00299077     
0.760086       1.39291        0.00297264     
0.767963       1.37536        0.00295518     
0.77584        1.36786        0.00294732     
0.783716       1.35571        0.00293348     
0.791593       1.34685        0.00292446     
0.799469       1.33508        0.00291074     
0.807346       1.32354        0.00289801     
0.815222       1.30501        0.00287873     
0.823099       1.29783        0.00287008     
0.830975       1.28139        0.00285183     
0.838852       1.26681        0.00283595     
0.846728       1.25629        0.00282378     
0.854605       1.24284        0.0028087      
0.862482       1.2297         0.00279304     
0.870358       1.21308        0.00277468     
0.878235       1.19999        0.0027588      
0.886111       1.18945        0.00274808     
0.893988       1.17517        0.00273155     
0.901864       1.16147        0.00271573     
0.909741       1.14785        0.00269927     
0.917617       1.13018        0.00267737     
0.925494       1.12328        0.00267        
0.93337        1.10675        0.00265077     
0.941247       1.09591        0.00263719     
0.949124       1.08246        0.00262114     
0.957          1.06491        0.00259979     
0.964877       1.05345        0.00258534     
0.972753       1.0386         0.00256771     
0.98063        1.02696        0.00255254     
0.988506       1.01256        0.00253493     
0.996383       0.998839       0.0025186      
1.00426        0.981401       0.00249585     
1.01214        0.974355       0.00248664     
1.02001        0.958415       0.00246591     
1.02789        0.947605       0.00245264     
1.03577        0.928009       0.00242673     
1.04364        0.919985       0.00241656     
1.05152        0.906813       0.00239922     
1.0594         0.894218       0.00238253     
1.06727        0.879986       0.00236286     
1.07515        0.867417       0.00234587     
1.08302        0.856105       0.00233111     
1.0909         0.837956       0.00230707     
1.09878        0.826879       0.00229108     
1.10665        0.813161       0.00227209     
1.11453        0.804782       0.00225982     
1.12241        0.786582       0.00223399     
1.13028        0.778768       0.00222301     
1.13816        0.76531        0.00220432     
1.14604        0.753916       0.00218777     
1.15391        0.740223       0.00216766     
1.16179        0.729736       0.00215207     
1.16967        0.719167       0.00213644     
1.17754        0.706941       0.00211831     
1.18542        0.689655       0.00209194     
1.1933         0.681612       0.00208014     
1.20117        0.672744       0.00206658     
1.20905        0.661642       0.00204952     
1.21693        0.648279       0.00202875     
1.2248         0.634936       0.0020078      
1.23268        0.625903       0.00199319     
1.24056        0.615156       0.00197572     
1.24843        0.607087       0.00196301     
1.25631        0.596296       0.00194548     
1.26419        0.587136       0.00193114     
1.27206        0.574941       0.00191061     
1.27994        0.563782       0.00189142     
1.28781        0.55518        0.00187697     
1.29569        0.547239       0.00186379     
1.30357        0.536257       0.00184524     
1.31144        0.527268       0.00182987     
1.31932        0.516026       0.0018096      
1.3272         0.504695       0.00178971     
1.33507        0.500308       0.00178218     
1.34295        0.490901       0.00176559     
1.35083        0.479347       0.00174435     
1.3587         0.473863       0.00173442     
1.36658        0.464309       0.00171702     
1.37446        0.4528         0.00169529     
1.38233        0.444814       0.00168012     
1.39021        0.439381       0.00166982     
1.39809        0.430093       0.00165229     
1.40596        0.423796       0.00164019     
1.41384        0.412008       0.00161751     
1.42172        0.407793       0.00160933     
1.42959        0.396824       0.0015869      
1.43747        0.391669       0.00157667     
1.44535        0.38581        0.00156547     
1.45322        0.378339       0.00154966     
1.4611         0.370607       0.00153389     
1.46898        0.363243       0.00151827     
1.47685        0.353131       0.00149732     
1.48473        0.347989       0.00148608     
1.49261        0.339756       0.00146882     
1.50048        0.335179       0.00145876     
1.50836        0.325993       0.0014386      
1.51623        0.324432       0.00143505     
1.52411        0.31357        0.00141089     
1.53199        0.307724       0.00139751     
1.53986        0.30276        0.00138627     
1.54774        0.297402       0.00137366     
1.55562        0.288166       0.00135237     
1.56349        0.284573       0.00134386     
1.57137        0.27924        0.00133153     
1.57925        0.273743       0.00131824     
1.58712        0.270569       0.00131085     
1.595          0.26125        0.00128806     
1.60288        0.255982       0.00127491     
1.61075        0.251494       0.00126338     
1.61863        0.24898        0.00125704     
1.62651        0.24213        0.0012396      
1.63438        0.234437       0.00121975     
1.64226        0.232272       0.00121429     
1.65014        0.227492       0.00120167     
1.65801        0.221474       0.00118559     
1.66589        0.218262       0.00117696     
1.67377        0.212263       0.00116093     
1.68164        0.208093       0.00114923     
1.68952        0.20337        0.00113612     
1.6974         0.199726       0.00112632     
1.70527        0.194908       0.00111201     
1.71315        0.189969       0.00109813     
1.72102        0.189239       0.0010958      
1.7289         0.182244       0.00107571     
1.73678        0.178517       0.00106442     
1.74465        0.174518       0.00105235     
1.75253        0.171915       0.00104453     
1.76041        0.165841       0.00102595     
1.76828        0.164311       0.00102118     
1.77616        0.161175       0.00101177     
1.78404        0.156922       0.000998053    
1.79191        0.155163       0.000992662    
1.79979        0.150091       0.000976102    
1.80767        0.148472       0.000971003    
1.81554        0.144962       0.00095915     
1.82342        0.141852       0.000948994    
1.8313         0.137802       0.000934907    
1.83917        0.135129       0.000926027    
1.84705        0.132533       0.000917192    
1.85493        0.130228       0.000909022    
1.8628         0.12595        0.000894214    
1.87068        0.12489        0.00089027     
1.87856        0.122833       0.000883149    
1.88643        0.11884        0.00086843     
1.89431        0.115412       0.00085588     
1.90219        0.112968       0.00084688     
1.91006        0.110848       0.000838766    
1.91794        0.108144       0.000828682    
1.92582        0.105935       0.000820241    
1.93369        0.104608       0.000815297    
1.94157        0.101694       0.000803742    
1.94944        0.0982157      0.000789499    
1.95732        0.0977078      0.000787458    
1.9652         0.0951369      0.000777095    
1.97307        0.0922549      0.000765356    
1.98095        0.0904521      0.000757534    
1.98883        0.0882113      0.000748154    
1.9967         0.0869036      0.000742593    
2.00458        0.084758       0.000733652    
2.01246        0.0828092      0.00072485     
2.02033        0.081419       0.000718969    
2.02821        0.0788798      0.000707571    
2.03609        0.0775467      0.000701573    
2.04396        0.0756169      0.000692973    
2.05184        0.0733507      0.000682349    
2.05972        0.0723985      0.000678029    
2.06759        0.0693896      0.000663629    
2.07547        0.0682025      0.000657994    
2.08335        0.0676121      0.000655082    
2.09122        0.0645143      0.000639849    
2.0991         0.063943       0.000637328    
2.10698        0.0626607      0.000630725    
2.11485        0.0611753      0.000623147    
2.12273        0.0598676      0.000616653    
2.13061        0.0598422      0.000616392    
2.13848        0.0564207      0.000598598    
2.14636        0.0554621      0.000593294    
2.15423        0.0552844      0.000592344    
2.16211        0.0534371      0.000582301    
2.16999        0.0513677      0.00057106     
2.17786        0.0501299      0.000564072    
2.18574        0.0501616      0.000564393    
2.19362        0.049019       0.000557791    
2.20149        0.0467147      0.000544605    
2.20937        0.045572       0.000537835    
2.21725        0.0453689      0.00053656     
2.22512        0.0442516      0.000529915    
2.233          0.04269        0.000520561    
2.24088        0.0417632      0.000514883    
2.24875        0.0418077      0.000515079    
2.25663        0.0394081      0.000500325    
2.26451        0.0384433      0.000493926    
2.27238        0.0385766      0.000494944    
2.28026        0.0371991      0.000485869    
2.28814        0.0370467      0.000484957    
2.29601        0.0351677      0.000472506    
2.30389        0.0351233      0.000472122    
2.31177        0.0344504      0.000467665    
2.31964        0.0335109      0.000461249    
2.32752        0.0319366      0.000450201    
2.3354         0.0318414      0.00044953     
2.34327        0.0311748      0.000444892    
2.35115        0.0304004      0.000439335    
2.35902        0.0290229      0.000429178    
2.3669         0.0287309      0.000427014    
2.37478        0.0277279      0.000419592    
2.38265        0.0277723      0.000419928    
2.39053        0.026344       0.000408995    
2.39841        0.0264647      0.000409831    
2.40628        0.0253855      0.00040139     
2.41416        0.0243635      0.000393331    
2.42204        0.0247824      0.000396595    
2.42991        0.0230875      0.0003829      
2.43779        0.0224654      0.000377604    
2.44567        0.0219005      0.000372826    
2.45354        0.0217799      0.000371798    
2.46142        0.020688       0.000362361    
2.4693         0.0205547      0.000361192    
2.47717        0.0202119      0.000358168    
2.48505        0.020523       0.000361024    
2.49293        0.0193105      0.000350091    
2.5008         0.0180346      0.000338567    
2.50868        0.018498       0.000342647    
2.51656        0.017806       0.000336179    
2.52443        0.0176981      0.000335159    
2.53231        0.0172665      0.000331047    
2.54019        0.0167904      0.000326451    
2.54806        0.0159715      0.000318519    
2.55594        0.0160603      0.000319277    
2.56382        0.0149939      0.000308495    
2.57169        0.0150955      0.000309538    
2.57957        0.0151843      0.000310578    
2.58744        0.0146194      0.000304618    
2.59532        0.0136418      0.000294259    
2.6032         0.0136164      0.000293985    
2.61107        0.0134005      0.000291646    
2.61895        0.0132736      0.000290261    
2.62683        0.0129879      0.000287121    
2.6347         0.0129752      0.000286981    
2.64258        0.0121754      0.000277996    
2.65046        0.0119532      0.000275448    
2.65833        0.0112422      0.000267131    
2.66621        0.0112867      0.000267658    
2.67409        0.0107154      0.000260797    
2.68196        0.010436       0.000257376    
2.68984        0.0106201      0.000259636    
2.69772        0.010125       0.000253511    
2.70559        0.00999169     0.000251837    
2.71347        0.00968699     0.000247968    
2.72135        0.00936959     0.000243872    
2.72922        0.00923628     0.000242131    
2.7371         0.00882367     0.000236831    
2.74498        0.00902045     0.000239285    
2.75285        0.00826505     0.000229048    
2.76073        0.00871575     0.000235209    
2.76861        0.00821426     0.000228343    
2.77648        0.00790321     0.000223978    
2.78436        0.00775086     0.000221809    
2.79223        0.0077826      0.000222263    
2.80011        0.00698911     0.000210628    
2.80799        0.00711607     0.000212532    
2.81586        0.00705259     0.000211582    
2.82374        0.00683675     0.00020832     
2.83162        0.00660188     0.00020471     
2.83949        0.00666536     0.000205692    
2.84737        0.00627179     0.000199527    
2.85525        0.00616387     0.000197803    
2.86312        0.00618926     0.00019821     
2.871          0.00594169     0.000194206    
2.87888        0.00541481     0.000185396    
2.88675        0.00560525     0.000188628    
2.89463        0.00538942     0.00018496     
2.90251        0.00523707     0.000182328    
2.91038        0.00502124     0.000178531    
2.91826        0.00516724     0.000181108    
2.92614        0.00503393     0.000178757    
2.93401        0.00475462     0.000173727    
2.94189        0.00495776     0.000177399    
2.94977        0.00458958     0.000170685    
2.95764        0.00488158     0.000176031    
2.96552        0.00445627     0.000168188    
2.9734         0.0042087      0.00016345     
2.98127        0.00418965     0.000163079    
2.98915        0.00417061     0.000162708    
2.99702        0.00388495     0.000157038    
3.0049         0.00410713     0.000161465    
3.01278        0.00382782     0.000155879    
3.02065        0.00377069     0.000154711    
3.02853        0.00350407     0.000149141    
3.03641        0.00325016     0.000143636    
3.04428        0.00319302     0.000142368    
3.05216        0.00309781     0.000140229    
3.06004        0.00328824     0.000144475    
3.06791        0.00307241     0.000139653    
3.07579        0.00300893     0.000138203    
3.08367        0.0028185      0.000133758    
3.09154        0.00302163     0.000138495    
3.09942        0.00277406     0.0001327      
3.1073         0.00257727     0.000127907    
3.11517        0.00252649     0.00012664     
3.12305        0.00260901     0.000128692    
3.13093        0.00240588     0.00012358     
3.1388         0.00247571     0.000125361    
3.14668        0.00233605     0.000121774    
3.15456        0.00232335     0.000121443    
3.16243        0.00222179     0.000118758    
3.17031        0.00194248     0.000111043    
3.17819        0.00219639     0.000118078    
3.18606        0.00196152     0.000111586    
3.19394        0.00206944     0.000114615    
3.20182        0.00191708     0.000110315    
3.20969        0.00192343     0.000110497    
3.21757        0.0018536      0.000108473    
3.22544        0.00181552     0.000107353    
3.23332        0.00163777     0.000101963    
3.2412         0.00184726     0.000108287    
3.24907        0.00166951     0.000102946    
3.25695        0.00171395     0.000104307    
3.26483        0.00162508     0.000101567    
3.2727         0.00137751     9.35108e-05    
3.28058        0.00148542     9.71046e-05    
3.28846        0.00161873     0.000101368    
3.29633        0.00142829     9.52189e-05    
3.30421        0.00147908     9.68969e-05    
3.31209        0.00131403     9.13308e-05    
3.31996        0.00135212     9.2645e-05     
3.32784        0.00117437     8.63412e-05    
3.33572        0.00132038     9.15511e-05    
3.34359        0.00143464     9.54303e-05    
3.35147        0.00116168     8.58732e-05    
3.35935        0.00106011     8.20334e-05    
3.36722        0.0012315      8.84164e-05    
3.3751         0.00105376     8.17874e-05    
3.38298        0.00115533     8.56383e-05    
3.39085        0.00099663     7.95394e-05    
3.39873        0.00103472     8.1045e-05     
3.40661        0.00112994     8.4692e-05     
