p (GeV)        dN/dp          error          
0.00293827     4.2542e-05     1.90254e-05    
0.00881482     0.00016166     3.70872e-05    
0.0146914      0.000536029    6.75332e-05    
0.0205679      0.00130179     0.000105243    
0.0264444      0.00205903     0.000132359    
0.032321       0.00273971     0.000152677    
0.0381975      0.00403298     0.000185239    
0.0440741      0.00522416     0.000210827    
0.0499506      0.00635578     0.000232541    
0.0558272      0.00843183     0.000267839    
0.0617037      0.0105504      0.000299602    
0.0675803      0.0122436      0.000322747    
0.0734568      0.0139963      0.000345075    
0.0793333      0.0165063      0.000374738    
0.0852099      0.0199862      0.000412348    
0.0910864      0.021237       0.000425053    
0.096963       0.0246233      0.000457684    
0.10284        0.02835        0.000491241    
0.108716       0.0305962      0.000510316    
0.114593       0.0331658      0.000531298    
0.120469       0.037939       0.000568092    
0.126346       0.0412658      0.00059247     
0.132222       0.0453158      0.000620972    
0.138099       0.0494934      0.000648835    
0.143975       0.0539688      0.000677527    
0.149852       0.0573807      0.000698815    
0.155728       0.0600013      0.000714479    
0.161605       0.0682884      0.000762097    
0.167482       0.0706453      0.000775131    
0.173358       0.0762183      0.000805202    
0.179235       0.0809404      0.000829754    
0.185111       0.0848288      0.000849607    
0.190988       0.0907676      0.000878894    
0.196864       0.0960343      0.00090392     
0.202741       0.100561       0.000924798    
0.208617       0.104841       0.00094441     
0.214494       0.111724       0.000975034    
0.22037        0.116778       0.000996958    
0.226247       0.122198       0.00101951     
0.232123       0.128085       0.00104389     
0.238          0.134492       0.00106951     
0.243877       0.138993       0.00108763     
0.249753       0.146455       0.00111659     
0.25563        0.150718       0.00113249     
0.261506       0.159941       0.00116644     
0.267383       0.163727       0.00118075     
0.273259       0.170508       0.00120447     
0.279136       0.177077       0.00122758     
0.285012       0.183297       0.00124879     
0.290889       0.187602       0.00126334     
0.296765       0.193634       0.0012839      
0.302642       0.202491       0.00131274     
0.308519       0.210038       0.00133659     
0.314395       0.213518       0.00134803     
0.320272       0.220104       0.00136865     
0.326148       0.227149       0.00139042     
0.332025       0.233675       0.00140999     
0.337901       0.241179       0.00143214     
0.343778       0.244472       0.00144246     
0.349654       0.250504       0.0014596      
0.355531       0.258587       0.001483       
0.361407       0.265454       0.00150275     
0.367284       0.27055        0.00151668     
0.373161       0.273281       0.00152496     
0.379037       0.279722       0.00154277     
0.384914       0.287227       0.00156289     
0.39079        0.29685        0.00158991     
0.396667       0.301802       0.00160288     
0.402543       0.305052       0.0016111      
0.40842        0.310182       0.00162449     
0.414296       0.317474       0.00164345     
0.420173       0.321516       0.0016538      
0.426049       0.326995       0.00166817     
0.431926       0.333683       0.0016855      
0.437803       0.339383       0.00169905     
0.443679       0.345747       0.00171523     
0.449556       0.351491       0.00172965     
0.455432       0.35691        0.00174271     
0.461309       0.36296        0.0017576      
0.467185       0.367257       0.00176788     
0.473062       0.372583       0.00178044     
0.478938       0.37625        0.00178922     
0.484815       0.381347       0.00180108     
0.490691       0.389013       0.00181918     
0.496568       0.394858       0.00183317     
0.502445       0.396806       0.0018375      
0.508321       0.400873       0.00184732     
0.514198       0.404864       0.00185594     
0.520074       0.408293       0.00186394     
0.525951       0.414836       0.0018792      
0.531827       0.418111       0.00188615     
0.537704       0.421353       0.00189322     
0.54358        0.424152       0.00190027     
0.549457       0.428747       0.00190994     
0.555333       0.434354       0.00192229     
0.56121        0.437715       0.00192979     
0.567086       0.44293        0.00194097     
0.572963       0.445874       0.00194764     
0.57884        0.446589       0.00194926     
0.584716       0.452656       0.00196165     
0.590593       0.452511       0.00196256     
0.596469       0.456442       0.00197083     
0.602346       0.456323       0.00197054     
0.608222       0.463027       0.00198463     
0.614099       0.464295       0.00198777     
0.619975       0.469051       0.0019979      
0.625852       0.472072       0.00200371     
0.631728       0.474973       0.00201022     
0.637605       0.47294        0.00200576     
0.643482       0.476249       0.00201272     
0.649358       0.479746       0.0020206      
0.655235       0.484239       0.00202948     
0.661111       0.4848         0.00203058     
0.666988       0.485855       0.00203328     
0.672864       0.48349        0.00202789     
0.678741       0.486272       0.00203375     
0.684617       0.489344       0.00204102     
0.690494       0.48971        0.00204149     
0.69637        0.492534       0.0020468      
0.702247       0.492756       0.0020474      
0.708124       0.493538       0.00204898     
0.714          0.498541       0.00205939     
0.719877       0.500243       0.00206302     
0.725753       0.495717       0.00205355     
0.73163        0.496499       0.00205488     
0.737506       0.494576       0.00205134     
0.743383       0.498916       0.0020603      
0.749259       0.49952        0.0020615      
0.755136       0.496797       0.00205616     
0.761012       0.496397       0.00205541     
0.766889       0.497214       0.00205712     
0.772766       0.497878       0.00205845     
0.778642       0.497461       0.00205766     
0.784519       0.49969        0.00206147     
0.790395       0.49792        0.00205847     
0.796272       0.49655        0.00205505     
0.802148       0.495563       0.00205344     
0.808025       0.498278       0.00205934     
0.813901       0.499826       0.0020622      
0.819778       0.4957         0.00205376     
0.825654       0.49558        0.0020532      
0.831531       0.493045       0.00204878     
0.837408       0.492075       0.002046       
0.843284       0.490458       0.00204325     
0.849161       0.484409       0.00202984     
0.855037       0.481388       0.00202428     
0.860914       0.485762       0.00203297     
0.86679        0.487302       0.00203625     
0.872667       0.481958       0.00202497     
0.878543       0.48172        0.00202412     
0.88442        0.482052       0.00202531     
0.890296       0.479074       0.0020189      
0.896173       0.476377       0.00201335     
0.90205        0.47499        0.00201011     
0.907926       0.47379        0.00200748     
0.913803       0.472131       0.00200452     
0.919679       0.470693       0.00200105     
0.925556       0.466882       0.00199326     
0.931432       0.467247       0.00199353     
0.937309       0.463521       0.00198561     
0.943185       0.460798       0.00197994     
0.949062       0.455778       0.00196974     
0.954938       0.455276       0.00196807     
0.960815       0.456399       0.00197059     
0.966691       0.454595       0.00196638     
0.972568       0.447993       0.00195224     
0.978445       0.451141       0.00195938     
0.984321       0.446308       0.0019488      
0.990198       0.44493        0.00194555     
0.996074       0.438634       0.00193177     
1.00195        0.440854       0.00193696     
1.00783        0.436634       0.00192746     
1.0137         0.43523        0.00192452     
1.01958        0.429759       0.00191192     
1.02546        0.425233       0.00190218     
1.03133        0.422068       0.00189539     
1.03721        0.422927       0.00189773     
1.04309        0.418928       0.00188806     
1.04896        0.41641        0.00188225     
1.05484        0.413023       0.00187469     
1.06072        0.40905        0.00186508     
1.06659        0.409365       0.00186637     
1.07247        0.405468       0.00185728     
1.07835        0.404132       0.001854       
1.08422        0.402192       0.00184929     
1.0901         0.398006       0.0018398      
1.09598        0.395419       0.00183438     
1.10185        0.388979       0.00181926     
1.10773        0.389744       0.00182092     
1.11361        0.384597       0.00180903     
1.11948        0.380402       0.00179902     
1.12536        0.376675       0.00179023     
1.13123        0.376922       0.00179053     
1.13711        0.370881       0.00177655     
1.14299        0.370541       0.00177524     
1.14886        0.366142       0.00176517     
1.15474        0.365861       0.00176396     
1.16062        0.362356       0.0017554      
1.16649        0.356902       0.00174269     
1.17237        0.355022       0.00173798     
1.17825        0.352886       0.00173281     
1.18412        0.349661       0.0017247      
1.19           0.343842       0.00171034     
1.19588        0.342302       0.0017061      
1.20175        0.341408       0.00170439     
1.20763        0.337784       0.00169565     
1.21351        0.333317       0.00168437     
1.21938        0.329216       0.00167376     
1.22526        0.324927       0.00166265     
1.23114        0.32417        0.0016608      
1.23701        0.323166       0.00165868     
1.24289        0.319473       0.00164878     
1.24877        0.316019       0.00163939     
1.25464        0.310055       0.00162412     
1.26052        0.305511       0.00161262     
1.2664         0.301733       0.00160211     
1.27227        0.302406       0.00160461     
1.27815        0.297539       0.00159111     
1.28402        0.297301       0.0015903      
1.2899         0.295727       0.00158682     
1.29578        0.289635       0.00156973     
1.30165        0.289549       0.00156945     
1.30753        0.283194       0.00155251     
1.31341        0.2823         0.00155016     
1.31928        0.278395       0.00153883     
1.32516        0.276191       0.00153284     
1.33104        0.272745       0.00152323     
1.33691        0.267504       0.00150857     
1.34279        0.269793       0.00151485     
1.34867        0.263514       0.00149746     
1.35454        0.262765       0.00149524     
1.36042        0.255158       0.0014737      
1.3663         0.256154       0.00147637     
1.37217        0.253797       0.00146904     
1.37805        0.252078       0.00146446     
1.38393        0.247824       0.00145224     
1.3898         0.244889       0.00144309     
1.39568        0.243306       0.00143898     
1.40156        0.239512       0.0014277      
1.40743        0.238941       0.00142529     
1.41331        0.234075       0.00141155     
1.41919        0.231854       0.0014044      
1.42506        0.228314       0.00139351     
1.43094        0.2284         0.00139377     
1.43682        0.223184       0.00137785     
1.44269        0.220402       0.00136915     
1.44857        0.220521       0.00136968     
1.45444        0.216505       0.00135707     
1.46032        0.21197        0.00134298     
1.4662         0.210855       0.00133924     
1.47207        0.205801       0.00132312     
1.47795        0.20398        0.0013176      
1.48383        0.201547       0.00130946     
1.4897         0.199896       0.00130382     
1.49558        0.200058       0.00130452     
1.50146        0.196331       0.00129234     
1.50733        0.192996       0.00128139     
1.51321        0.189133       0.00126842     
1.51909        0.189482       0.00126975     
1.52496        0.187866       0.00126457     
1.53084        0.184181       0.00125208     
1.53672        0.182556       0.00124644     
1.54259        0.179366       0.0012353      
1.54847        0.177349       0.0012284      
1.55435        0.17449        0.00121842     
1.56022        0.171802       0.00120896     
1.5661         0.171223       0.00120681     
1.57198        0.167616       0.00119417     
1.57785        0.166297       0.00118935     
1.58373        0.162885       0.00117735     
1.58961        0.161081       0.00117058     
1.59548        0.159754       0.00116569     
1.60136        0.156903       0.00115551     
1.60723        0.155687       0.00115066     
1.61311        0.155134       0.00114893     
1.61899        0.152939       0.00114079     
1.62486        0.148786       0.00112516     
1.63074        0.147451       0.00112017     
1.63662        0.143375       0.00110455     
1.64249        0.144354       0.00110837     
1.64837        0.140397       0.00109271     
1.65425        0.142533       0.0011013      
1.66012        0.139061       0.00108763     
1.666          0.13519        0.00107254     
1.67188        0.135113       0.00107211     
1.67775        0.1308         0.00105522     
1.68363        0.131149       0.00105642     
1.68951        0.128732       0.00104652     
1.69538        0.128656       0.00104648     
1.70126        0.127413       0.00104108     
1.70714        0.123312       0.00102421     
1.71301        0.122581       0.00102103     
1.71889        0.119662       0.00100917     
1.72477        0.119637       0.00100892     
1.73064        0.117144       0.000998225    
1.73652        0.115136       0.000989862    
1.7424         0.115331       0.000990555    
1.74827        0.113868       0.000984185    
1.75415        0.112183       0.00097696     
1.76002        0.109886       0.000966843    
1.7659         0.108457       0.000960692    
1.77178        0.107248       0.000955106    
1.77765        0.104211       0.000941881    
1.78353        0.103539       0.000938458    
1.78941        0.103266       0.000937224    
1.79528        0.10091        0.000926634    
1.80116        0.0998716      0.00092194     
1.80704        0.0986975      0.000916275    
1.81291        0.096179       0.00090476     
1.81879        0.0950644      0.000899268    
1.82467        0.0931755      0.000890298    
1.83054        0.0917972      0.000883612    
1.83642        0.0918312      0.000884103    
1.8423         0.089134       0.000870959    
1.84817        0.0887256      0.000868714    
1.85405        0.087126       0.000860938    
1.85993        0.0859093      0.000854826    
1.8658         0.0841651      0.000846366    
1.87168        0.0835951      0.000843327    
1.87756        0.081034       0.000830146    
1.88343        0.0812297      0.000831408    
1.88931        0.0795791      0.000822839    
1.89519        0.0787538      0.000818565    
1.90106        0.077435       0.000811688    
1.90694        0.0763034      0.000805741    
1.91282        0.074925       0.000798437    
1.91869        0.0748484      0.00079821     
1.92457        0.0743294      0.000795351    
1.93044        0.0730106      0.000788271    
1.93632        0.070926       0.00077667     
1.9422         0.0683565      0.000762477    
1.94807        0.0673865      0.000757337    
1.95395        0.0679481      0.000760387    
1.95983        0.0670037      0.000754897    
1.9657         0.0652935      0.000745205    
1.97158        0.064315       0.0007397      
1.97746        0.0629196      0.000731736    
1.98333        0.061771       0.000724932    
1.98921        0.0626559      0.000730004    
1.99509        0.0603671      0.000716551    
2.00096        0.0595078      0.00071174     
2.00684        0.0584017      0.000704897    
2.01272        0.0578146      0.000701244    
2.01859        0.0580613      0.000703047    
2.02447        0.055696       0.000688385    
2.03035        0.0558662      0.000689435    
2.03622        0.0545729      0.000681519    
2.0421         0.0535178      0.000674798    
2.04798        0.0523182      0.000667089    
2.05385        0.0517651      0.000663882    
2.05973        0.0517992      0.000663772    
2.06561        0.0502847      0.000654221    
2.07148        0.0479363      0.000638551    
2.07736        0.0489233      0.000645089    
2.08323        0.0481661      0.000640078    
2.08911        0.0463878      0.00062827     
2.09499        0.0458263      0.000624574    
2.10086        0.0472131      0.000633717    
2.10674        0.0463708      0.00062804     
2.11262        0.0450775      0.000619222    
2.11849        0.043512       0.000608496    
2.12437        0.043044       0.000605217    
2.13025        0.0420315      0.00059794     
2.13612        0.042006       0.000598001    
2.142          0.0413764      0.000593385    
2.14788        0.0395641      0.000580128    
2.15375        0.0410275      0.000590758    
2.15963        0.0404915      0.00058701     
2.16551        0.0389089      0.000575306    
2.17138        0.0375986      0.000565666    
2.17726        0.0380155      0.000568664    
2.18314        0.0362713      0.000555468    
2.18901        0.0367563      0.000559169    
2.19489        0.035395       0.000548982    
2.20077        0.0353184      0.000548125    
2.20664        0.0346292      0.000542885    
2.21252        0.0346632      0.000543018    
2.2184         0.033404       0.000533065    
2.22427        0.0325872      0.000526509    
2.23015        0.0323745      0.000524788    
2.23602        0.0323149      0.000524305    
2.2419         0.0315577      0.000518127    
2.24778        0.030877       0.00051251     
2.25365        0.0302218      0.000507187    
2.25953        0.0302389      0.000507187    
2.26541        0.0294306      0.000500364    
2.27128        0.029839       0.000503823    
2.27716        0.0288435      0.000495349    
2.28304        0.0275842      0.000484417    
2.28891        0.0269716      0.000479009    
2.29479        0.0270908      0.000480065    
2.30067        0.0267759      0.00047742     
2.30654        0.0259676      0.000470164    
2.31242        0.0249892      0.000461071    
2.3183         0.0256613      0.00046723     
2.32417        0.024836       0.000459656    
2.33005        0.0246573      0.000458       
2.33593        0.0248275      0.000459578    
2.3418         0.0247935      0.00045942     
2.34768        0.0233896      0.000446073    
2.35356        0.0229642      0.000442162    
2.35943        0.0220197      0.000432815    
2.36531        0.0223686      0.000436229    
2.37119        0.0216369      0.000429205    
2.37706        0.021756       0.000430215    
2.38294        0.0209477      0.000422149    
2.38882        0.0210668      0.000423347    
2.39469        0.0203606      0.000416192    
2.40057        0.0203861      0.000416452    
2.40644        0.0198841      0.000411294    
2.41232        0.0193056      0.000405266    
2.4182         0.0188887      0.000400867    
2.42407        0.0193906      0.000406158    
2.42995        0.0188461      0.000400415    
2.43583        0.0180293      0.000392013    
2.4417         0.0180208      0.000391551    
2.44758        0.0175528      0.000386621    
2.45346        0.0170764      0.000381154    
2.45933        0.0173571      0.000384274    
2.46521        0.0162936      0.000372316    
2.47109        0.0165063      0.000374738    
2.47696        0.0160894      0.000369976    
2.48284        0.0153406      0.000361265    
2.48872        0.0161149      0.000370269    
2.49459        0.0152726      0.000360463    
2.50047        0.0144643      0.000350796    
2.50635        0.0143962      0.000349969    
2.51222        0.014711       0.000353775    
2.5181         0.0149918      0.000357135    
2.52398        0.0146004      0.000352442    
2.52985        0.0140814      0.000346122    
2.53573        0.0139963      0.000345075    
2.54161        0.0132731      0.000336042    
