p (GeV)        dN/dp          error          
0.00293827     8.5084e-05     2.69059e-05    
0.00881482     0.000527521    6.69951e-05    
0.0146914      0.00157405     0.000115726    
0.0205679      0.00269716     0.000151487    
0.0264444      0.00457752     0.000197348    
0.032321       0.00669611     0.000238686    
0.0381975      0.00984422     0.000289402    
0.0440741      0.0127966      0.000329956    
0.0499506      0.0168211      0.000378294    
0.0558272      0.0198416      0.000410853    
0.0617037      0.024836       0.000459656    
0.0675803      0.0300176      0.000505329    
0.0734568      0.0349185      0.000545013    
0.0793333      0.0401086      0.000584106    
0.0852099      0.047094       0.000633146    
0.0910864      0.053203       0.00067292     
0.096963       0.0591419      0.000709347    
0.10284        0.0690031      0.000766168    
0.108716       0.0755036      0.00080142     
0.114593       0.0826336      0.000838468    
0.120469       0.0931925      0.00089046     
0.126346       0.102833       0.000935255    
0.132222       0.109052       0.000963472    
0.138099       0.118871       0.00100591     
0.143975       0.130349       0.00105299     
0.149852       0.13964        0.00108989     
0.155728       0.14985        0.00112917     
0.161605       0.163208       0.00117852     
0.167482       0.171257       0.00120693     
0.173358       0.186598       0.00126031     
0.179235       0.195464       0.00128954     
0.185111       0.20957        0.00133543     
0.190988       0.219747       0.00136712     
0.196864       0.235359       0.0014151      
0.202741       0.243          0.00143782     
0.208617       0.255677       0.00147455     
0.214494       0.270686       0.00151782     
0.22037        0.284087       0.00155504     
0.226247       0.300083       0.0015981      
0.232123       0.309655       0.00162338     
0.238          0.326484       0.00166648     
0.243877       0.338456       0.00169703     
0.249753       0.35509        0.00173815     
0.25563        0.367648       0.00176816     
0.261506       0.383737       0.00180641     
0.267383       0.397725       0.00183978     
0.273259       0.413755       0.00187619     
0.279136       0.430355       0.00191358     
0.285012       0.444487       0.00194406     
0.290889       0.456893       0.00197114     
0.296765       0.474309       0.00200886     
0.302642       0.484443       0.00203026     
0.308519       0.507373       0.00207853     
0.314395       0.519336       0.00210224     
0.320272       0.532856       0.00212882     
0.326148       0.546214       0.00215599     
0.332025       0.56135        0.00218536     
0.337901       0.580732       0.00222301     
0.343778       0.59706        0.0022537      
0.349654       0.609261       0.00227654     
0.355531       0.624244       0.00230433     
0.361407       0.636573       0.0023275      
0.367284       0.653735       0.0023583      
0.373161       0.668114       0.00238453     
0.379037       0.687709       0.00241891     
0.384914       0.699944       0.00243998     
0.39079        0.713344       0.00246401     
0.396667       0.730157       0.00249268     
0.402543       0.739678       0.00250828     
0.40842        0.759077       0.00254145     
0.414296       0.771465       0.00256158     
0.420173       0.785811       0.00258642     
0.426049       0.799058       0.002608       
0.431926       0.818228       0.00263827     
0.437803       0.828914       0.00265506     
0.443679       0.840426       0.00267411     
0.449556       0.853631       0.00269509     
0.455432       0.864854       0.00271233     
0.461309       0.876051       0.00273037     
0.467185       0.887894       0.00274847     
0.473062       0.899951       0.00276727     
0.478938       0.912152       0.00278615     
0.484815       0.924982       0.00280487     
0.490691       0.935482       0.00282145     
0.496568       0.947419       0.00283902     
0.502445       0.960071       0.0028575      
0.508321       0.971949       0.00287548     
0.514198       0.984856       0.00289497     
0.520074       0.998027       0.00291369     
0.525951       1.00628        0.00292555     
0.531827       1.01595        0.00294009     
0.537704       1.02471        0.00295208     
0.54358        1.0374         0.00296955     
0.549457       1.03667        0.00296967     
0.555333       1.05073        0.00298928     
0.56121        1.06207        0.00300597     
0.567086       1.06737        0.00301356     
0.572963       1.07684        0.00302728     
0.57884        1.08286        0.00303577     
0.584716       1.08893        0.0030433      
0.590593       1.09884        0.00305803     
0.596469       1.10756        0.00307049     
0.602346       1.11414        0.00307904     
0.608222       1.12036        0.00308737     
0.614099       1.12993        0.00310113     
0.619975       1.1326         0.00310441     
0.625852       1.14281        0.00311703     
0.631728       1.14911        0.00312656     
0.637605       1.15253        0.00313223     
0.643482       1.15465        0.00313438     
0.649358       1.15967        0.00314155     
0.655235       1.1645         0.00314816     
0.661111       1.1605         0.00314302     
0.666988       1.17287        0.00315865     
0.672864       1.17338        0.00315985     
0.678741       1.17896        0.00316702     
0.684617       1.18202        0.00317069     
0.690494       1.18976        0.00318125     
0.69637        1.18845        0.00317912     
0.702247       1.19027        0.00318155     
0.708124       1.19548        0.0031897      
0.714          1.19471        0.00318929     
0.719877       1.20033        0.00319573     
0.725753       1.19922        0.00319352     
0.73163        1.19939        0.00319456     
0.737506       1.20122        0.0031975      
0.743383       1.1999         0.00319527     
0.749259       1.20259        0.00319818     
0.755136       1.20675        0.00320443     
0.761012       1.20374        0.00319961     
0.766889       1.19444        0.00318758     
0.772766       1.20192        0.00319804     
0.778642       1.19813        0.00319256     
0.784519       1.19699        0.00319256     
0.790395       1.20031        0.00319607     
0.796272       1.19436        0.00318756     
0.802148       1.19987        0.00319435     
0.808025       1.1984         0.00319274     
0.813901       1.19113        0.00318333     
0.819778       1.18981        0.0031813      
0.825654       1.18856        0.00318043     
0.831531       1.18898        0.00318039     
0.837408       1.18532        0.00317517     
0.843284       1.17937        0.00316825     
0.849161       1.18343        0.00317304     
0.855037       1.17331        0.00315962     
0.860914       1.17221        0.00315823     
0.86679        1.16919        0.00315394     
0.872667       1.1644         0.0031474      
0.878543       1.15965        0.00314102     
0.88442        1.15166        0.00312994     
0.890296       1.15144        0.00312904     
0.896173       1.14679        0.00312341     
0.90205        1.14776        0.00312488     
0.907926       1.14084        0.00311499     
0.913803       1.13471        0.00310747     
0.919679       1.12296        0.00309126     
0.925556       1.12262        0.00309136     
0.931432       1.12148        0.00308988     
0.937309       1.11958        0.00308687     
0.943185       1.10415        0.0030652      
0.949062       1.10178        0.00306235     
0.954938       1.09757        0.0030555      
0.960815       1.08845        0.00304404     
0.966691       1.08231        0.00303508     
0.972568       1.07635        0.00302605     
0.978445       1.07352        0.00302265     
0.984321       1.06406        0.00300878     
0.990198       1.05956        0.00300263     
0.996074       1.0558         0.00299775     
1.00195        1.05078        0.00299044     
1.00783        1.03555        0.00296872     
1.0137         1.03564        0.00296765     
1.01958        1.0231         0.00295001     
1.02546        1.01702        0.0029418      
1.03133        1.00865        0.00292924     
1.03721        1.00671        0.00292596     
1.04309        1.00012        0.00291646     
1.04896        0.992582       0.002906       
1.05484        0.988455       0.00290017     
1.06072        0.976143       0.00288231     
1.06659        0.977811       0.00288429     
1.07247        0.965525       0.00286663     
1.07835        0.960377       0.00285901     
1.08422        0.952703       0.00284714     
1.0901         0.946373       0.00283754     
1.09598        0.938919       0.00282588     
1.10185        0.9299         0.00281301     
1.10773        0.917359       0.00279473     
1.11361        0.918057       0.00279513     
1.11948        0.91199        0.00278513     
1.12536        0.901703       0.00277011     
1.13123        0.896607       0.0027622      
1.13711        0.883189       0.0027417      
1.14299        0.8829         0.00274086     
1.14886        0.866955       0.00271629     
1.15474        0.863237       0.00270907     
1.16062        0.863467       0.00271122     
1.16649        0.852516       0.00269303     
1.17237        0.839354       0.00267252     
1.17825        0.833798       0.00266402     
1.18412        0.82004        0.0026416      
1.19           0.82072        0.00264354     
1.19588        0.814229       0.00263196     
1.20175        0.802615       0.00261277     
1.20763        0.794506       0.0026003      
1.21351        0.787282       0.00258882     
1.21938        0.778902       0.00257404     
1.22526        0.776307       0.00257063     
1.23114        0.770674       0.00256118     
1.23701        0.755163       0.00253486     
1.24289        0.748459       0.00252383     
1.24877        0.744324       0.00251671     
1.25464        0.73482        0.00250065     
1.26052        0.730319       0.00249165     
1.2664         0.720432       0.0024757      
1.27227        0.714331       0.00246517     
1.27815        0.705227       0.00245034     
1.28402        0.693222       0.00242839     
1.2899         0.693647       0.00242942     
1.29578        0.681702       0.00240789     
1.30165        0.676563       0.00239899     
1.30753        0.672411       0.00239173     
1.31341        0.661818       0.00237275     
1.31928        0.655581       0.00236209     
1.32516        0.654186       0.00235938     
1.33104        0.645201       0.00234285     
1.33691        0.635254       0.00232461     
1.34279        0.630881       0.00231709     
1.34867        0.62102        0.00229876     
1.35454        0.613694       0.00228523     
1.36042        0.607662       0.00227392     
1.3663         0.600429       0.00226026     
1.37217        0.588977       0.00223872     
1.37805        0.588662       0.00223838     
1.38393        0.582894       0.00222679     
1.3898         0.56945        0.00220103     
1.39568        0.566685       0.00219641     
1.40156        0.557513       0.00217852     
1.40743        0.553352       0.00216997     
1.41331        0.55023        0.00216374     
1.41919        0.542555       0.0021485      
1.42506        0.536165       0.00213551     
1.43094        0.525445       0.00211456     
1.43682        0.520229       0.00210383     
1.44269        0.513567       0.00209036     
1.44857        0.511261       0.00208583     
1.45444        0.501698       0.00206593     
1.46032        0.498848       0.00205998     
1.4662         0.489284       0.00204025     
1.47207        0.482503       0.00202618     
1.47795        0.480835       0.00202281     
1.48383        0.469332       0.00199831     
1.4897         0.468243       0.00199637     
1.49558        0.464201       0.00198724     
1.50146        0.455787       0.00196895     
1.50733        0.449252       0.00195533     
1.51321        0.445534       0.00194694     
1.51909        0.443747       0.00194309     
1.52496        0.432337       0.00191777     
1.53084        0.430712       0.00191395     
1.53672        0.424161       0.00189933     
1.54259        0.417371       0.0018841      
1.54847        0.411517       0.00187067     
1.55435        0.405885       0.00185815     
1.56022        0.400746       0.00184648     
1.5661         0.394594       0.00183287     
1.57198        0.386945       0.0018144      
1.57785        0.386503       0.00181376     
1.58373        0.379424       0.001797       
1.58961        0.37534        0.00178698     
1.59548        0.372608       0.00178107     
1.60136        0.368924       0.0017713      
1.60723        0.360552       0.001751       
1.61311        0.35617        0.00174107     
1.61899        0.353813       0.00173525     
1.62486        0.34653        0.00171729     
1.63074        0.34488        0.00171283     
1.63662        0.335554       0.00168952     
1.64249        0.333053       0.00168284     
1.64837        0.324459       0.00166146     
1.65425        0.325821       0.00166458     
1.66012        0.31989        0.00164958     
1.666          0.31487        0.00163712     
1.67188        0.308795       0.00162096     
1.67775        0.304779       0.00161002     
1.68363        0.301248       0.00160051     
1.68951        0.297488       0.00159061     
1.69538        0.292536       0.00157754     
1.70126        0.288154       0.001566       
1.70714        0.283662       0.00155337     
1.71301        0.281016       0.00154641     
1.71889        0.277076       0.00153529     
1.72477        0.274124       0.00152692     
1.73064        0.270414       0.00151692     
1.73652        0.264279       0.00149948     
1.7424         0.264305       0.00149979     
1.74827        0.259319       0.00148533     
1.75415        0.255278       0.00147419     
1.76002        0.250572       0.00145975     
1.7659         0.246829       0.00144888     
1.77178        0.242549       0.00143644     
1.77765        0.240839       0.00143128     
1.78353        0.235589       0.0014161      
1.78941        0.232092       0.00140527     
1.79528        0.23148        0.00140342     
1.80116        0.227013       0.00139006     
1.80704        0.222018       0.00137442     
1.81291        0.220597       0.00136997     
1.81879        0.216113       0.00135606     
1.82467        0.212548       0.00134448     
1.83054        0.210064       0.00133678     
1.83642        0.206644       0.00132615     
1.8423         0.203487       0.00131601     
1.84817        0.200007       0.00130452     
1.85405        0.198025       0.00129805     
1.85993        0.194638       0.0012871      
1.8658         0.189703       0.00127027     
1.87168        0.190843       0.00127396     
1.87756        0.187372       0.00126262     
1.88343        0.182063       0.00124447     
1.88931        0.180735       0.00124017     
1.89519        0.177026       0.0012274      
1.90106        0.173512       0.00121495     
1.90694        0.171546       0.001208       
1.91282        0.170772       0.00120558     
1.91869        0.167224       0.00119302     
1.92457        0.166705       0.00119123     
1.93044        0.161796       0.00117348     
1.93632        0.159694       0.00116579     
1.9422         0.157082       0.00115592     
1.94807        0.153687       0.00114338     
1.95395        0.151518       0.0011358      
1.95983        0.151832       0.00113704     
1.9657         0.149229       0.00112696     
1.97158        0.146932       0.00111794     
1.97746        0.144022       0.00110683     
1.98333        0.14192        0.00109914     
1.98921        0.138457       0.00108567     
1.99509        0.138542       0.0010858      
2.00096        0.133114       0.00106443     
2.00684        0.132101       0.00106024     
2.01272        0.131361       0.00105748     
2.01859        0.127975       0.00104372     
2.02447        0.127652       0.00104247     
2.03035        0.122759       0.00102199     
2.03622        0.121466       0.00101667     
2.0421         0.119518       0.00100835     
2.04798        0.118173       0.00100267     
2.05385        0.116276       0.000994525    
2.05973        0.115246       0.000990044    
2.06561        0.112651       0.000979067    
2.07148        0.112592       0.000978586    
2.07736        0.110201       0.0009683      
2.08323        0.108916       0.000962721    
2.08911        0.106236       0.000950667    
2.09499        0.105436       0.000947086    
2.10086        0.103198       0.000937147    
2.10674        0.100152       0.000923076    
2.11262        0.100705       0.000925462    
2.11849        0.0972         0.000909224    
2.12437        0.0970298      0.000908907    
2.13025        0.0944943      0.000896651    
2.13612        0.0926905      0.000887898    
2.142          0.0903082      0.000876422    
2.14788        0.0915504      0.000882835    
2.15375        0.0897466      0.000874109    
2.15963        0.0871175      0.000860811    
2.16551        0.0848458      0.000849607    
2.17138        0.0836801      0.000843756    
2.17726        0.0819019      0.000834664    
2.18314        0.0824209      0.000837475    
2.18901        0.0821741      0.000836049    
2.19489        0.0808298      0.0008291      
2.20077        0.0779285      0.000814357    
2.20664        0.076448       0.000806414    
2.21252        0.0747378      0.000797621    
2.2184         0.0735722      0.000791293    
2.22427        0.072432       0.000785237    
2.23015        0.0720577      0.000783208    
2.23602        0.0708495      0.000776344    
2.2419         0.0693605      0.000768431    
2.24778        0.0668931      0.00075437     
2.25365        0.0667654      0.000753651    
2.25953        0.0659061      0.000748691    
2.26541        0.0646043      0.000741458    
2.27128        0.0654211      0.000746223    
2.27716        0.0641448      0.000738623    
2.28304        0.0618731      0.000725431    
2.28891        0.0610903      0.000720829    
2.29479        0.0595333      0.000711587    
2.30067        0.0585974      0.000706178    
2.30654        0.0584357      0.000704999    
2.31242        0.0570233      0.000696534    
2.3183         0.0558321      0.00068933     
2.32417        0.0552876      0.000685858    
2.33005        0.0554493      0.000686754    
2.33593        0.0527351      0.00066974     
2.3418         0.0522076      0.000666383    
2.34768        0.05111        0.000659453    
2.35356        0.0511355      0.000659508    
2.35943        0.049136       0.000646489    
2.36531        0.049119       0.000646377    
2.37119        0.0472982      0.000634287    
2.37706        0.0469749      0.000632116    
2.38294        0.0467452      0.000630684    
2.38882        0.0449073      0.000618053    
2.39469        0.0454519      0.000621787    
2.40057        0.0442182      0.000613411    
2.40644        0.0431291      0.000605815    
2.41232        0.0422017      0.000599149    
2.4182         0.0407638      0.000589102    
2.42407        0.0412572      0.000592409    
2.42995        0.0405         0.000587072    
2.43583        0.0391982      0.000577566    
2.4417         0.0389174      0.000575369    
2.44758        0.0380411      0.000568855    
2.45346        0.0378539      0.000567582    
2.45933        0.036918       0.000560397    
2.46521        0.0372498      0.000562909    
2.47109        0.0352588      0.000547662    
2.47696        0.0356842      0.000550956    
2.48284        0.0345526      0.000542151    
2.48872        0.0347568      0.000543751    
2.49459        0.033421       0.000533337    
2.50047        0.0319746      0.000521538    
2.50635        0.0319661      0.000521468    
2.51222        0.0308174      0.000512015    
2.5181         0.0310557      0.000514131    
2.52398        0.0295242      0.000501158    
2.52985        0.0305367      0.000509678    
2.53573        0.0297454      0.000503176    
2.54161        0.0281543      0.000489396    
